;***************************************************************************
;***************          Aerotech Axis Calibration           **************
;Step Axis System Serial Number: 643494-1-1-YWafer
;Step Axis Stage Serial Number: 518497-01
;Scan Axis System Serial Number: 643494-1-1-XWafer
;Scan Axis Stage Serial Number: 518496-01
;Date Tested: August 1, 2025 09:27:17 EDT
;Optic Location: 25.4mm above TWafer tt
;Payload: 1.4kg
;Average Air Temperature (°C): 21.15
;Average Material Temperature (ºC): 21.31
;Average Air Pressure (mmHg): 740.01
;Average Air Humidity (%): 66.00
;Step Axis CountsPerUnit Parameter: 100000.000000
;Scan Axis CountsPerUnit Parameter: 100000.000000
;***************************************************************************
:START2D 5 6 6 5 5.000 5.000 71 
:START2D POSUNIT=PRIMARY CORUNIT=PRIMARY/1000
-0.0000  -0.0000  	-0.2300  1.2592  	-0.5500  2.6584  	-0.2200  4.4076  	0.0300  6.1268  	-0.1000  8.5060  	0.0700  9.9652  	0.3000  11.3345  	0.3600  12.7937  	0.1500  14.4229  	0.0600  15.7021  	0.0400  17.3313  	0.2200  18.6405  	-0.2300  20.6897  	-0.2000  21.8889  	0.2000  23.3481  	0.4100  25.1673  	0.2800  27.0165  	-0.0400  28.5557  	-0.2300  30.5649  	-0.2600  32.3341  	-0.4300  34.2334  	-0.4600  36.1326  	-0.3000  38.3518  	-0.3500  40.6410  	-0.4100  43.2702  	-0.4600  45.5194  	-0.2800  48.0386  	0.2000  50.6278  	0.4700  53.3970  	0.5500  55.5162  	0.6500  57.9654  	0.4800  60.4046  	-0.0800  62.8738  	0.4200  64.6630  	1.2800  66.4523  	1.6600  68.1815  	1.3400  69.9107  	1.4900  71.2199  	1.7700  72.6891  	1.8500  73.6483  	1.7200  74.8175  	1.9800  75.9267  	2.0900  77.7759  	2.2000  79.4251  	2.5200  81.3843  	2.6800  83.2635  	2.6800  85.6127  	2.2600  87.9519  	1.9100  90.6512  	1.3800  93.3704  	0.7200  96.1796  	-0.1500  98.2788  	0.0900  100.0280  	0.6800  101.2472  	1.3400  102.6264  	1.8000  103.8056  	1.9200  105.4548  	1.9100  107.2140  	1.7400  109.4432  	1.6100  111.6424  	1.4900  113.9816  	1.5800  115.8209  	1.3600  117.9901  	1.1100  119.7293  	0.6400  121.2685  	0.3500  122.3777  	0.1800  123.6969  	0.2600  124.9961  	0.5900  126.2853  	0.8200  127.0545  	
-2.3892  1.6500  	-2.4192  2.7592  	-2.7192  4.1384  	-2.3692  5.8076  	-2.1092  7.9168  	-2.3592  9.7360  	-2.2392  10.9952  	-2.0892  12.5645  	-2.0492  13.9637  	-2.1692  15.3629  	-2.1692  16.6821  	-1.9892  18.4713  	-1.9592  19.8405  	-2.3892  21.6297  	-2.4292  22.8189  	-2.0192  24.3281  	-1.9092  25.8373  	-1.8892  27.6965  	-2.0592  29.3457  	-2.3992  31.1749  	-2.3892  32.9541  	-2.5192  34.7234  	-2.6592  36.5126  	-2.5392  38.6318  	-2.7492  40.8710  	-2.6492  43.4602  	-2.5092  45.6494  	-2.2692  48.3686  	-1.6892  50.8278  	-1.6092  53.3370  	-1.7092  55.4862  	-1.7292  57.9554  	-1.7892  60.2646  	-2.3792  62.7238  	-1.6892  64.4430  	-0.6492  66.4323  	-0.3392  68.0915  	-0.7592  69.8607  	-0.7192  71.1899  	-0.5192  72.4891  	-0.3992  73.3683  	-0.4492  74.4075  	-0.1492  75.5167  	0.0708  77.4259  	0.1908  79.1251  	0.3708  81.0343  	0.4808  82.7735  	0.3808  84.9927  	-0.0492  87.4219  	-0.2692  90.0712  	-0.7592  92.7804  	-1.4192  95.6096  	-2.1892  97.7088  	-1.8892  99.3880  	-1.3192  100.6172  	-0.9292  101.9964  	-0.5092  103.0956  	-0.4792  104.5448  	-0.4892  106.3540  	-0.4792  108.5732  	-0.4992  110.7124  	-0.6192  113.0716  	-0.4892  115.0109  	-0.7592  117.1801  	-1.0892  118.9093  	-1.5592  120.3385  	-1.7792  121.3877  	-1.9492  122.7269  	-1.8092  124.0161  	-1.4292  125.1353  	-1.3992  125.7345  	
-5.1184  2.1300  	-5.2084  3.5192  	-5.3984  4.8884  	-5.0384  6.4276  	-4.8684  8.2668  	-5.1484  10.2060  	-4.9584  11.3352  	-4.9384  12.8045  	-4.8184  14.3437  	-4.8784  16.1929  	-4.8784  17.3221  	-4.7384  18.7313  	-4.8084  19.9805  	-5.3484  21.6797  	-5.4384  22.8789  	-4.9884  24.3081  	-4.8084  25.8773  	-4.7784  27.6565  	-4.8584  29.1957  	-5.1384  31.1049  	-5.1884  32.8141  	-5.4084  34.5534  	-5.5584  36.2726  	-5.4084  38.2718  	-5.5184  40.6310  	-5.3184  43.2302  	-5.2884  45.4494  	-5.0384  47.9386  	-4.5084  50.3578  	-4.4884  52.8870  	-4.6384  54.9762  	-4.6584  57.3154  	-4.6584  59.6646  	-5.0784  62.2038  	-4.3784  63.9530  	-3.5084  65.7023  	-3.1084  67.3015  	-3.5584  69.0707  	-3.5184  70.3699  	-3.4684  71.5291  	-3.3684  72.4383  	-3.4184  73.4875  	-2.9784  74.6267  	-2.7784  76.4359  	-2.6884  77.9751  	-2.5684  79.8743  	-2.4384  81.7035  	-2.4984  83.9027  	-2.9084  86.2619  	-3.1684  88.8112  	-3.6684  91.4004  	-4.2184  94.2796  	-5.1184  96.3788  	-4.8284  98.0780  	-4.2784  99.0972  	-3.8884  100.3564  	-3.3984  101.5156  	-3.2584  103.1448  	-3.2784  104.8140  	-3.3884  107.0832  	-3.4684  108.9324  	-3.5584  111.1616  	-3.4584  113.0909  	-3.6684  115.4701  	-3.9784  117.3093  	-4.3784  118.7085  	-4.5984  119.7577  	-4.7884  120.8069  	-4.7784  121.9661  	-4.4184  123.0853  	-4.2784  123.9145  	
-7.1476  3.4400  	-7.2776  4.7692  	-7.6276  6.1984  	-7.2776  7.8376  	-7.1276  9.3768  	-7.2976  11.0860  	-7.1576  12.2152  	-6.8776  13.7645  	-6.7976  15.1437  	-6.8876  16.7529  	-7.0376  18.0121  	-7.0576  19.7913  	-6.9076  20.9305  	-7.3376  22.5797  	-7.4076  23.5889  	-6.9276  24.8681  	-6.7476  26.2973  	-6.7376  28.2165  	-6.9976  29.8257  	-7.4076  31.6149  	-7.4576  33.1341  	-7.7076  34.8934  	-7.7176  36.6426  	-7.4576  38.5518  	-7.4076  40.6110  	-7.2376  43.3202  	-7.2076  45.4494  	-7.1876  47.9086  	-6.8276  50.3078  	-6.8276  52.8670  	-6.8176  54.8962  	-6.6376  57.0654  	-6.4976  59.3346  	-7.0776  61.9038  	-6.5176  63.6130  	-5.7276  65.4123  	-5.4376  67.1215  	-5.8676  68.7107  	-5.7476  69.8999  	-5.5976  70.9691  	-5.3976  71.8283  	-5.4376  72.9275  	-5.0776  73.9567  	-4.9976  75.6559  	-4.9976  77.3051  	-4.8876  79.2643  	-4.6876  80.9635  	-4.7476  83.1327  	-5.0376  85.4219  	-5.2376  88.1912  	-5.6776  90.7604  	-6.3076  93.3296  	-7.2076  95.3188  	-7.0676  97.0080  	-6.5776  97.9972  	-6.1576  99.2464  	-5.5676  100.4056  	-5.3276  102.0948  	-5.3876  103.7840  	-5.4776  105.8332  	-5.5576  107.9224  	-5.7476  110.1316  	-5.5876  112.0309  	-5.7776  114.2001  	-6.0876  116.0293  	-6.4576  117.4585  	-6.6976  118.5177  	-6.9376  119.3969  	-6.9676  120.2661  	-6.6376  121.4953  	-6.5476  122.3245  	
-10.4068  5.0800  	-10.5168  6.1692  	-10.8068  7.4984  	-10.4668  8.9876  	-10.2868  10.5468  	-10.4168  12.1660  	-10.3568  13.6252  	-10.1768  15.1545  	-10.0468  16.4437  	-10.1568  17.8429  	-10.2468  18.9821  	-10.1968  20.4613  	-10.1068  21.6505  	-10.5868  23.3197  	-10.5868  24.5189  	-10.1568  25.8181  	-10.0268  27.1873  	-10.0468  28.8965  	-10.2968  30.3057  	-10.6068  32.0049  	-10.6668  33.5141  	-10.8368  35.1834  	-10.8168  36.8626  	-10.6468  38.8518  	-10.6468  40.9710  	-10.4968  43.4302  	-10.5268  45.5394  	-10.4668  47.8886  	-10.1468  50.1878  	-10.1068  52.6270  	-10.0468  54.7262  	-9.8768  56.9454  	-9.7968  59.2246  	-10.2668  61.7038  	-9.7968  63.4430  	-9.0168  65.0323  	-8.7468  66.6415  	-9.2368  68.2607  	-9.0468  69.4799  	-8.8868  70.7691  	-8.6668  71.6283  	-8.7168  72.6475  	-8.3368  73.6267  	-8.1968  75.3659  	-8.2268  76.7451  	-7.9968  78.5843  	-7.9768  80.2335  	-8.0168  82.4727  	-8.3368  84.6719  	-8.5668  87.2012  	-8.9968  89.7204  	-9.5968  92.4096  	-10.4568  94.5188  	-10.2568  96.1880  	-9.7468  97.1872  	-9.3268  98.3464  	-8.9568  99.3856  	-8.7268  100.9148  	-8.7268  102.6940  	-8.7768  104.7532  	-8.9268  106.8024  	-8.9868  108.9716  	-8.8568  110.7709  	-9.1568  112.8301  	-9.4468  114.4493  	-9.8768  115.8585  	-10.0268  116.9377  	-10.1468  118.0269  	-10.2268  119.1961  	-9.8768  120.5453  	-9.6468  121.0445  	
-12.7160  6.8200  	-12.7260  7.8392  	-12.9760  9.0084  	-12.6460  10.5776  	-12.3660  11.9968  	-12.5760  13.8160  	-12.6760  15.2052  	-12.5160  16.6445  	-12.4560  17.8537  	-12.5860  19.0729  	-12.5760  20.0321  	-12.4460  21.2913  	-12.2460  22.5605  	-12.6960  24.3597  	-12.8660  25.6189  	-12.5760  26.9781  	-12.5660  28.3173  	-12.5460  29.9065  	-12.6860  31.1657  	-12.9160  32.6849  	-12.8260  34.0241  	-12.9460  35.7034  	-12.9860  37.4526  	-12.8860  39.4518  	-13.0360  41.5210  	-13.0460  43.9002  	-12.8560  45.9194  	-12.7560  48.3386  	-12.2760  50.5678  	-12.1860  52.9470  	-12.1760  54.9562  	-12.1260  57.1454  	-12.0860  59.3346  	-12.4560  61.7238  	-12.1760  63.3630  	-11.3160  65.0323  	-11.0360  66.5015  	-11.4460  68.0307  	-11.3260  69.1499  	-11.0960  70.1791  	-10.9560  71.0383  	-11.0160  71.9475  	-10.6660  72.8767  	-10.5860  74.6159  	-10.5160  76.0651  	-10.4260  77.8943  	-10.3360  79.4835  	-10.3660  81.6827  	-10.6960  83.9519  	-10.9660  86.5212  	-11.3560  88.9604  	-11.8960  91.6896  	-12.7760  93.6988  	-12.4760  95.3180  	-12.0160  96.3372  	-11.6760  97.3464  	-11.3560  98.3656  	-11.1160  99.8248  	-11.1760  101.4740  	-11.1460  103.7332  	-11.2460  105.6724  	-11.3460  107.7816  	-11.2260  109.4809  	-11.5260  111.4501  	-11.8060  113.0893  	-12.1860  114.4785  	-12.2960  115.6577  	-12.4360  116.5669  	-12.5660  117.5461  	-12.2260  118.5453  	-12.0660  118.9645  	
-16.2252  8.3800  	-16.1052  9.5692  	-16.3252  10.8484  	-15.9952  12.4576  	-15.7652  13.7268  	-16.1052  15.3860  	-16.2552  16.5952  	-16.0152  17.7745  	-15.9752  18.9137  	-16.0052  20.1429  	-15.9852  21.1721  	-15.9652  22.6013  	-15.7252  23.6105  	-16.2352  25.3197  	-16.4852  26.4589  	-16.2152  27.6781  	-16.1352  28.9773  	-16.1252  30.6165  	-16.2352  31.8457  	-16.4452  33.3249  	-16.3652  34.6741  	-16.4552  36.3534  	-16.5352  37.8826  	-16.4352  39.6718  	-16.5752  41.5310  	-16.5152  44.0102  	-16.4352  46.1594  	-16.2552  48.5086  	-15.7752  50.6978  	-15.7152  53.1270  	-15.6252  54.9362  	-15.6052  57.0854  	-15.5952  59.2346  	-15.9552  61.6238  	-15.7052  63.2530  	-14.9852  64.7523  	-14.6852  66.3315  	-15.0652  67.7707  	-14.9552  68.8599  	-14.6452  69.8291  	-14.4952  70.5383  	-14.5452  71.4975  	-14.2252  72.4067  	-14.2852  74.0359  	-14.2152  75.3951  	-14.0552  77.1443  	-13.9152  78.6235  	-13.9152  80.7727  	-14.1952  82.9919  	-14.4152  85.4112  	-14.7852  87.7904  	-15.4352  90.5096  	-16.3552  92.3388  	-16.2452  93.8680  	-15.7152  94.7972  	-15.2952  95.8864  	-14.8152  96.9356  	-14.5452  98.5248  	-14.5052  100.1040  	-14.5952  102.1632  	-14.8652  103.9524  	-15.0252  105.9916  	-15.0052  107.7609  	-15.2552  109.7601  	-15.3952  111.4593  	-15.6552  112.8385  	-15.7252  114.1177  	-15.8252  114.9669  	-15.8952  115.6961  	-15.7552  116.5053  	-15.7552  116.9645  	
-18.7245  9.9200  	-18.6245  10.8892  	-18.8245  12.3684  	-18.5445  13.6876  	-18.4445  15.1268  	-18.7745  16.7060  	-18.8045  17.7652  	-18.5245  18.8745  	-18.4145  20.0837  	-18.4745  21.3629  	-18.3845  22.3521  	-18.1945  23.6513  	-18.0945  24.7005  	-18.7545  26.0297  	-18.9945  27.1889  	-18.7945  28.3481  	-18.6345  29.5773  	-18.5845  31.1365  	-18.5945  32.4557  	-18.7745  33.9049  	-18.6645  35.2741  	-18.8445  36.7434  	-18.9845  38.1126  	-18.9545  40.0518  	-19.0545  41.8610  	-19.0245  44.3302  	-18.8245  46.2794  	-18.4545  48.4086  	-18.1345  50.6378  	-18.1645  52.9270  	-18.1045  54.7662  	-18.0545  56.8554  	-18.1345  58.8946  	-18.4945  61.2238  	-18.1445  62.8530  	-17.3145  64.3923  	-17.0345  65.8815  	-17.3845  67.3007  	-17.2545  68.2399  	-17.0645  69.1991  	-17.0045  69.8283  	-17.1445  70.7375  	-16.8345  71.5767  	-16.6845  73.1759  	-16.6545  74.6851  	-16.5445  76.4843  	-16.3745  77.9835  	-16.4045  80.0127  	-16.6745  82.0819  	-16.8945  84.4812  	-17.4045  86.9304  	-17.9945  89.5796  	-18.8745  91.5488  	-18.7345  93.1180  	-18.1645  94.1072  	-17.7645  95.1064  	-17.2845  95.9356  	-17.0645  97.4348  	-17.0345  98.9240  	-17.1745  100.8932  	-17.4445  102.7524  	-17.5545  104.9516  	-17.5045  106.7009  	-17.6245  108.4501  	-17.9145  110.0693  	-18.2245  111.1885  	-18.2645  112.2377  	-18.2845  113.2069  	-18.3945  114.0461  	-18.2845  114.7853  	-18.2945  115.5245  	
-20.8437  11.9300  	-20.6837  12.7092  	-20.8837  13.7984  	-20.7137  15.1076  	-20.6837  16.3168  	-20.9837  18.0260  	-21.0037  19.1952  	-20.6137  20.3245  	-20.5537  21.3237  	-20.5037  22.4929  	-20.3437  23.4621  	-20.3437  24.5613  	-20.3237  25.5005  	-21.1037  27.0097  	-21.4137  28.0789  	-21.0737  29.2381  	-20.8337  30.4373  	-20.7537  31.8865  	-20.6637  32.9957  	-21.0237  34.3049  	-21.0037  35.5441  	-21.3337  37.0334  	-21.4737  38.5526  	-21.3537  40.2518  	-21.3337  42.0710  	-21.1537  44.3302  	-20.9737  46.2694  	-20.6837  48.4486  	-20.3237  50.6378  	-20.4437  52.8470  	-20.5237  54.5662  	-20.4837  56.7154  	-20.4037  58.8046  	-20.6437  60.9938  	-20.2137  62.5830  	-19.4737  64.0323  	-19.2437  65.4615  	-19.6037  66.8807  	-19.5637  67.8199  	-19.3937  68.5691  	-19.3037  69.1383  	-19.3837  69.9675  	-19.0037  70.9167  	-18.9037  72.4759  	-18.8637  73.9451  	-18.7337  75.6443  	-18.5637  77.0735  	-18.6637  79.0227  	-18.9537  80.9919  	-19.1937  83.2812  	-19.5937  85.8504  	-20.1437  88.2996  	-21.0437  90.2188  	-20.8737  91.6580  	-20.3937  92.4472  	-20.0237  93.4764  	-19.5637  94.2356  	-19.2837  95.6448  	-19.3037  97.1340  	-19.4237  99.3032  	-19.6737  101.2224  	-19.8637  103.2916  	-19.8037  104.9109  	-19.9537  106.4601  	-20.1937  108.0493  	-20.4637  109.1485  	-20.5037  110.3777  	-20.5537  111.4869  	-20.6537  112.3861  	-20.4337  113.1553  	-20.5237  113.3645  	
-23.9129  13.6900  	-23.9029  14.6192  	-24.1129  15.4584  	-23.9829  16.7976  	-23.9029  18.0968  	-24.1329  19.9660  	-24.0629  21.2152  	-23.6529  22.0645  	-23.6229  22.8537  	-23.5729  23.9229  	-23.6329  24.7221  	-23.6129  25.6813  	-23.6029  26.7805  	-24.1629  28.2997  	-24.3229  29.1789  	-23.9529  30.2581  	-23.7729  31.5673  	-23.7829  32.9865  	-23.9029  33.9657  	-24.1129  35.1449  	-24.2029  36.3841  	-24.4029  37.7634  	-24.4229  39.2126  	-24.2929  41.0018  	-24.2629  42.6510  	-24.2029  44.8802  	-24.1129  46.6794  	-23.8429  48.6486  	-23.4829  50.4878  	-23.5129  52.8270  	-23.6329  54.4862  	-23.5029  56.5254  	-23.4829  58.4646  	-23.8829  60.7638  	-23.4029  62.3530  	-22.6829  63.6823  	-22.4229  65.0015  	-22.8329  66.3707  	-22.6829  67.2899  	-22.4629  68.0791  	-22.3929  68.5883  	-22.4529  69.4075  	-22.1529  70.2267  	-22.0229  71.6759  	-22.0129  73.0551  	-21.9329  74.7543  	-21.6929  76.1635  	-21.8229  78.0727  	-22.0529  80.1019  	-22.2029  82.5312  	-22.7429  84.8604  	-23.3329  87.4196  	-24.2929  89.2288  	-24.1629  90.5980  	-23.4829  91.2172  	-23.0729  92.0964  	-22.5929  92.8056  	-22.4629  94.2548  	-22.4929  95.8540  	-22.7029  97.8332  	-22.9929  99.4524  	-23.1429  101.4216  	-22.9429  103.0509  	-23.0329  104.9701  	-23.1629  106.4293  	-23.4629  107.6485  	-23.5929  108.7377  	-23.7229  109.5169  	-23.8729  110.2561  	-23.6729  110.8253  	-23.6329  111.2145  	
-26.0821  14.9600  	-26.2421  15.9292  	-26.5621  17.0784  	-26.2721  18.4576  	-26.0021  19.5868  	-26.2721  21.2260  	-26.1321  22.0652  	-25.7121  22.8845  	-25.7721  23.7337  	-25.9221  24.7529  	-25.9821  25.6921  	-25.9721  26.8213  	-25.8421  27.6305  	-26.2421  28.8897  	-26.4421  29.8489  	-26.0221  30.8981  	-25.9821  31.9773  	-26.0821  33.3165  	-26.2321  34.3257  	-26.4321  35.5549  	-26.5221  36.6641  	-26.5721  37.8734  	-26.5021  39.2626  	-26.2621  40.8618  	-26.3421  42.5310  	-26.3721  44.7902  	-26.2821  46.5594  	-26.0921  48.6586  	-25.5721  50.5578  	-25.5721  52.6470  	-25.6221  54.3662  	-25.5421  56.3254  	-25.5321  58.1546  	-26.0321  60.3138  	-25.6821  61.8530  	-24.7821  63.2423  	-24.7221  64.5515  	-25.0121  65.8407  	-24.8421  66.7199  	-24.5921  67.4791  	-24.4821  67.9483  	-24.7021  68.6375  	-24.4321  69.2467  	-24.3821  70.7759  	-24.1821  72.1251  	-24.0621  73.7043  	-23.8521  75.1635  	-23.9021  77.1427  	-24.1821  79.0019  	-24.4421  81.2012  	-24.8821  83.4004  	-25.4621  85.7596  	-26.3421  87.5288  	-26.1921  88.9280  	-25.6121  89.6972  	-25.2021  90.6764  	-24.8821  91.4056  	-24.7721  92.8348  	-24.8821  94.2440  	-24.9821  95.9732  	-25.1621  97.6224  	-25.2321  99.6816  	-25.0321  101.3209  	-25.1221  102.9001  	-25.3721  104.3893  	-25.7621  105.4585  	-25.9221  106.2777  	-26.0421  107.1869  	-26.0121  108.0961  	-25.7421  108.8753  	-25.7321  109.1645  	
-29.2813  17.2800  	-29.2313  18.0592  	-29.4013  19.0784  	-29.0813  20.2476  	-28.8113  21.0568  	-29.2513  22.7860  	-29.3713  23.8552  	-29.0513  24.6445  	-29.1313  25.4637  	-29.0813  26.3529  	-29.1313  27.0721  	-28.9913  27.9913  	-28.8013  28.8005  	-29.2913  29.9897  	-29.5313  30.9689  	-29.2613  31.8181  	-29.2413  32.8373  	-29.2213  34.1465  	-29.2813  35.1357  	-29.4613  36.1649  	-29.4913  37.1841  	-29.5713  38.3734  	-29.6613  39.8226  	-29.4813  41.2718  	-29.5313  42.8910  	-29.5513  45.0702  	-29.3213  46.7294  	-29.0413  48.7286  	-28.5213  50.5078  	-28.5813  52.7070  	-28.7713  54.3662  	-28.8413  56.2954  	-28.6313  57.9446  	-29.0813  60.0338  	-28.6513  61.5430  	-27.6913  62.7523  	-27.6513  63.9715  	-28.1313  65.2707  	-28.0413  66.1099  	-27.8313  66.7191  	-27.8113  67.1383  	-27.7913  67.6575  	-27.3913  68.2867  	-27.2513  69.7259  	-27.1813  71.0951  	-27.1813  72.7243  	-27.0813  74.0935  	-27.1713  75.9327  	-27.4813  77.7319  	-27.6413  79.8212  	-27.9213  82.0304  	-28.3613  84.4496  	-29.2113  86.2288  	-29.0813  87.7880  	-28.6613  88.4372  	-28.3513  89.1164  	-28.0913  89.5856  	-27.9713  90.8148  	-27.9013  92.2640  	-27.9413  94.2332  	-28.0413  96.0024  	-28.1413  97.8716  	-28.0313  99.3109  	-28.2913  100.7301  	-28.6513  102.0693  	-29.0113  103.1785  	-28.9813  104.0577  	-29.0513  105.0769  	-28.9213  106.0461  	-28.6213  106.5853  	-28.7013  106.6545  	
-30.9505  19.3200  	-30.8905  19.9692  	-31.0305  20.9084  	-30.6505  22.0176  	-30.3605  22.8268  	-30.8205  24.4160  	-30.9205  25.3552  	-30.6105  26.4045  	-30.6705  27.0737  	-30.5905  27.8629  	-30.6005  28.4221  	-30.4405  29.2213  	-30.2705  29.9705  	-30.8405  31.2297  	-31.1905  32.1089  	-30.7705  33.0181  	-30.7005  34.0073  	-30.6305  35.2565  	-30.7905  36.0557  	-31.0505  37.0549  	-31.1005  38.0241  	-31.1905  39.1934  	-31.2505  40.4226  	-30.9905  41.8618  	-31.0505  43.3310  	-30.9905  45.5602  	-30.8305  47.1694  	-30.5605  49.0986  	-30.0805  50.8778  	-30.0905  52.8670  	-30.2705  54.4262  	-30.4005  56.1654  	-30.1405  57.7146  	-30.5605  59.7038  	-30.1805  61.2330  	-29.3505  62.5323  	-29.2405  63.8615  	-29.7705  65.0007  	-29.6805  65.7599  	-29.4705  66.1991  	-29.2205  66.5783  	-29.2205  67.2375  	-28.8305  67.8167  	-28.8005  69.1859  	-28.8305  70.3751  	-28.8705  71.8943  	-28.6905  73.2435  	-28.8005  75.0627  	-29.0605  76.8619  	-29.1405  78.9912  	-29.4305  81.1204  	-29.8705  83.4396  	-30.7405  85.0788  	-30.6905  86.3980  	-30.2705  87.0572  	-29.9505  87.8164  	-29.7005  88.4656  	-29.6205  89.5248  	-29.6005  90.8140  	-29.6005  92.5632  	-29.6705  94.4424  	-29.7705  96.2816  	-29.7205  97.7709  	-29.9805  99.1801  	-30.1805  100.3093  	-30.5405  101.2985  	-30.6205  102.1977  	-30.7405  103.0969  	-30.5905  104.0361  	-30.2105  104.7153  	-30.2605  104.7345  	
-33.8597  21.4000  	-33.8397  21.8992  	-33.9997  22.6184  	-33.6597  23.6776  	-33.4597  24.3268  	-33.9897  25.8960  	-34.0197  26.8752  	-33.6097  27.8145  	-33.5797  28.4537  	-33.5697  29.1529  	-33.5897  29.6921  	-33.4497  30.4513  	-33.3197  31.1105  	-33.8897  32.2397  	-34.1997  33.1589  	-33.7797  33.9481  	-33.7497  34.8773  	-33.7097  36.1265  	-33.8497  36.8257  	-34.0897  37.7549  	-34.1097  38.5941  	-34.1297  39.6634  	-34.1697  40.8426  	-33.9397  42.2418  	-33.9997  43.6510  	-34.0697  45.7102  	-34.0097  47.3794  	-33.6797  49.2786  	-33.1997  50.9678  	-33.1797  52.8170  	-33.2397  54.3862  	-33.3897  56.1754  	-33.0997  57.7646  	-33.5197  59.7238  	-33.2097  61.1130  	-32.2997  62.3323  	-32.1997  63.5515  	-32.7897  64.6107  	-32.6597  65.2599  	-32.4197  65.7291  	-32.2097  66.1083  	-32.2197  66.5175  	-31.8997  66.9967  	-31.8097  68.2859  	-31.8197  69.6151  	-31.8597  71.1543  	-31.7397  72.4635  	-31.7897  74.1827  	-32.0097  75.9119  	-32.0497  77.7312  	-32.3897  79.8804  	-32.8897  82.1596  	-33.7397  83.8388  	-33.6797  85.1080  	-33.2397  85.7072  	-33.0397  86.4164  	-32.7397  86.8756  	-32.5397  87.9148  	-32.5797  89.2340  	-32.6197  90.9332  	-32.7497  92.5724  	-32.8497  94.5116  	-32.6897  96.0509  	-32.8397  97.1901  	-33.2197  98.4093  	-33.6097  99.1385  	-33.7197  100.0077  	-33.7797  100.7569  	-33.5697  101.6861  	-33.0897  102.7953  	-33.1697  102.6845  	
-36.2889  23.2400  	-36.4189  23.8892  	-36.4489  24.4484  	-36.1489  25.2576  	-35.9489  25.9468  	-36.4089  27.5160  	-36.3589  28.4652  	-35.9889  29.2445  	-36.0389  29.9037  	-36.0589  30.4729  	-36.1089  30.9721  	-35.9789  31.7613  	-35.8089  32.2405  	-36.3789  33.4097  	-36.7289  34.2689  	-36.2889  34.9581  	-36.1989  35.7973  	-36.1589  36.8365  	-36.2589  37.5357  	-36.5089  38.2749  	-36.6089  39.0841  	-36.5889  40.1134  	-36.6689  41.2726  	-36.5089  42.6218  	-36.4689  43.9010  	-36.5389  45.9802  	-36.4689  47.6194  	-36.1689  49.3186  	-35.6289  50.8078  	-35.5689  52.6070  	-35.6789  54.1262  	-35.7789  55.8854  	-35.5989  57.2746  	-36.0489  59.2738  	-35.7089  60.7830  	-34.8089  61.9323  	-34.6489  63.1215  	-35.1989  64.1307  	-35.1289  64.6999  	-34.8889  64.9991  	-34.7389  65.1683  	-34.8289  65.6175  	-34.4289  66.1867  	-34.2189  67.4759  	-34.3389  68.7251  	-34.3389  70.1243  	-34.2389  71.2735  	-34.2889  72.8827  	-34.4689  74.5019  	-34.6289  76.5412  	-34.8989  78.6704  	-35.3389  80.9596  	-36.2289  82.6188  	-36.1189  83.7280  	-35.6789  84.2172  	-35.4289  84.8664  	-35.1889  85.2856  	-35.0389  86.4148  	-35.1089  87.6540  	-35.1789  89.2832  	-35.2589  90.9424  	-35.3089  92.7216  	-35.1589  94.0309  	-35.3689  95.3101  	-35.6489  96.1793  	-36.0389  97.1085  	-36.0989  97.8977  	-36.1589  98.6869  	-35.9989  99.5761  	-35.5789  100.5553  	-35.5989  100.3245  	
-38.2781  25.0300  	-38.3881  25.4492  	-38.6381  26.1284  	-38.1981  27.1476  	-38.0781  28.0468  	-38.4781  29.4760  	-38.2881  30.0752  	-38.0081  30.8345  	-37.9381  31.2337  	-38.0381  31.8029  	-38.1281  32.1321  	-38.1481  32.8313  	-37.9981  33.4705  	-38.5781  34.6397  	-38.7181  35.3689  	-38.2181  35.9881  	-38.1681  36.7073  	-38.2981  37.6065  	-38.4681  38.3057  	-38.7881  39.1749  	-38.7381  39.9641  	-38.7481  40.9134  	-38.6981  41.9326  	-38.3381  43.0618  	-38.3481  44.3410  	-38.4581  46.3402  	-38.5181  47.9294  	-38.2681  49.6386  	-37.8081  51.1178  	-37.6781  52.8270  	-37.6181  54.1762  	-37.5681  55.8054  	-37.5081  57.3446  	-37.9281  59.2138  	-37.7281  60.6130  	-36.9481  61.6923  	-36.8681  62.8715  	-37.2981  63.7307  	-37.2581  64.2299  	-36.9781  64.6291  	-36.6881  64.7683  	-36.7081  65.1675  	-36.4181  65.6467  	-36.2881  66.7159  	-36.4681  67.9051  	-36.4481  69.2343  	-36.3481  70.4735  	-36.3081  72.1727  	-36.5181  73.6919  	-36.6081  75.7212  	-36.8581  77.6404  	-37.2881  79.8096  	-38.2081  81.3388  	-38.2881  82.4080  	-37.8281  82.9272  	-37.5781  83.5864  	-37.2981  84.1556  	-37.0881  85.2648  	-37.0781  86.5140  	-37.1481  87.8632  	-37.2981  89.2824  	-37.4181  90.8716  	-37.3281  92.2309  	-37.4481  93.6201  	-37.7681  94.8193  	-38.1181  95.7585  	-38.1681  96.5077  	-38.1481  96.9669  	-38.0681  97.4761  	-37.6881  98.1153  	-37.6781  98.1545  	
-40.0773  27.0400  	-40.0573  27.7592  	-40.1873  28.3684  	-39.8573  29.0776  	-39.6373  29.7968  	-40.1173  31.0560  	-40.0273  31.5052  	-39.5373  32.1645  	-39.5473  32.7537  	-39.6973  33.3329  	-39.8273  33.6321  	-39.7773  34.3113  	-39.5873  34.8105  	-40.1573  35.8997  	-40.3073  36.4189  	-39.8773  36.8181  	-39.8273  37.5773  	-39.8373  38.4465  	-40.0073  39.1357  	-40.3973  40.0049  	-40.3673  40.7041  	-40.4373  41.4934  	-40.3473  42.3626  	-39.9473  43.6118  	-39.9173  44.7510  	-40.0973  46.6802  	-40.1673  48.1594  	-39.9273  49.7886  	-39.5173  51.1578  	-39.3573  52.8270  	-39.3173  54.0962  	-39.2573  55.7354  	-39.2273  57.2346  	-39.6573  58.9838  	-39.4173  60.4130  	-38.5473  61.4523  	-38.4573  62.6115  	-38.9473  63.5607  	-38.9073  63.8499  	-38.6573  64.2291  	-38.4573  64.3883  	-38.3673  64.7475  	-38.0373  65.0667  	-37.8973  66.0859  	-38.1073  67.1851  	-38.1273  68.5543  	-38.0073  69.7835  	-38.0173  71.3927  	-38.1773  72.9919  	-38.2573  74.7912  	-38.4673  76.6904  	-38.9273  78.7996  	-39.8373  80.2188  	-39.8073  81.2980  	-39.3773  81.7672  	-39.2273  82.4264  	-38.9973  82.9156  	-38.8373  83.8648  	-38.7873  84.7640  	-38.8373  86.1632  	-38.9773  87.5824  	-39.0273  89.2916  	-38.8873  90.7409  	-39.1173  92.0101  	-39.4073  93.0593  	-39.8073  93.6685  	-39.8573  94.3077  	-39.8173  94.7169  	-39.6873  95.2161  	-39.2873  96.0153  	-39.2373  96.5645  	
-42.1965  29.1300  	-42.1165  29.5492  	-42.1865  29.7984  	-41.7265  30.5276  	-41.5765  31.1468  	-42.0465  32.4960  	-42.0365  33.0352  	-41.7465  33.6245  	-41.7765  34.0837  	-41.7865  34.5129  	-41.7765  34.7021  	-41.6765  35.1913  	-41.5065  35.6705  	-42.1465  36.8697  	-42.5565  37.4189  	-42.0365  37.7981  	-41.9665  38.4373  	-41.9665  39.2365  	-42.1065  39.6457  	-42.3265  40.2849  	-42.2865  40.8341  	-42.3365  41.7834  	-42.3365  42.7426  	-42.0265  43.8518  	-42.0265  45.0110  	-42.1065  46.8302  	-42.1065  48.1494  	-41.8065  49.6186  	-41.3765  51.1178  	-41.2365  52.6970  	-41.2065  54.0162  	-41.1465  55.6654  	-41.1565  57.0546  	-41.6465  58.8638  	-41.3965  60.1130  	-40.5365  61.0423  	-40.4765  62.0715  	-40.8965  62.8907  	-40.8265  63.3299  	-40.6265  63.5191  	-40.3465  63.6083  	-40.3565  63.9975  	-40.0265  64.2567  	-39.8565  65.1959  	-40.0665  66.2251  	-40.0065  67.5643  	-40.0165  68.8135  	-40.0465  70.3027  	-40.2265  71.8019  	-40.2665  73.5412  	-40.4165  75.4104  	-40.8465  77.4696  	-41.7365  78.9288  	-41.7865  80.0380  	-41.3465  80.4172  	-41.2565  80.9664  	-41.0065  81.3456  	-40.8665  82.1648  	-40.7765  83.0040  	-40.7965  84.5232  	-40.9565  85.9724  	-41.0565  87.5816  	-40.9665  88.9109  	-41.1665  90.1501  	-41.4865  91.0393  	-41.8465  91.7585  	-41.8865  92.2177  	-41.8165  92.5269  	-41.6465  93.0261  	-41.2765  93.8753  	-41.2765  94.1545  	
-43.2157  31.0000  	-43.0957  31.2792  	-43.2657  31.6084  	-42.9357  32.0276  	-42.8457  32.7368  	-43.3657  34.0160  	-43.1757  34.4552  	-42.7957  35.0445  	-42.7257  35.2937  	-42.7257  35.6929  	-42.7857  35.8021  	-42.7357  36.3113  	-42.6857  36.8305  	-43.3757  37.7697  	-43.6757  38.3189  	-43.1857  38.6581  	-43.0157  39.1973  	-42.8657  39.9865  	-42.9957  40.4457  	-43.3957  40.9749  	-43.4257  41.5441  	-43.5857  42.4034  	-43.4257  43.2526  	-43.1257  44.2718  	-43.1057  45.4110  	-43.1757  47.0902  	-43.1557  48.3294  	-42.9057  49.6986  	-42.4657  50.9978  	-42.4257  52.5770  	-42.4157  53.9362  	-42.2257  55.4854  	-42.2357  56.7646  	-42.7357  58.3338  	-42.5457  59.6130  	-41.6357  60.4423  	-41.5257  61.4115  	-41.9357  62.2307  	-41.8257  62.6499  	-41.7057  62.7991  	-41.4957  62.8483  	-41.5557  63.1675  	-41.1657  63.4167  	-41.0357  64.3059  	-41.2657  65.1851  	-41.0957  66.4843  	-41.0657  67.6635  	-41.0757  69.2327  	-41.2357  70.7019  	-41.3557  72.5112  	-41.5657  74.3204  	-41.9957  76.2696  	-42.9757  77.6388  	-43.0357  78.5480  	-42.5057  78.9572  	-42.2057  79.4564  	-41.9757  79.8256  	-41.8657  80.7148  	-41.8557  81.7540  	-42.0057  82.9032  	-42.1957  84.1324  	-42.3457  85.7216  	-42.2057  87.1209  	-42.2857  88.3401  	-42.5357  89.1993  	-42.8457  89.8185  	-42.9757  90.2877  	-42.9357  90.4169  	-42.8557  90.6061  	-42.4557  91.3953  	-42.4457  91.8745  	
-45.3949  32.6300  	-45.4049  32.8692  	-45.5149  33.2484  	-45.1849  33.6776  	-45.0149  34.1668  	-45.5349  35.5460  	-45.3749  35.7452  	-44.9449  36.2645  	-44.9149  36.5637  	-44.9649  36.8729  	-45.0549  37.0021  	-44.9749  37.4713  	-44.8549  37.8605  	-45.5049  38.6797  	-45.8249  39.1489  	-45.4049  39.4681  	-45.2249  39.9273  	-45.1149  40.5465  	-45.2849  40.8857  	-45.6049  41.3849  	-45.5849  41.9241  	-45.5749  42.8934  	-45.4549  43.6126  	-45.2249  44.6018  	-45.2949  45.4710  	-45.4549  47.1902  	-45.4549  48.3794  	-45.0549  49.7886  	-44.4449  50.9978  	-44.3849  52.5870  	-44.3849  53.7662  	-44.2949  55.1554  	-44.3849  56.4546  	-44.9649  58.0338  	-44.8549  59.3730  	-43.7649  60.1823  	-43.5549  61.0115  	-43.8349  61.8707  	-43.7549  62.2599  	-43.6649  62.3291  	-43.6749  62.2183  	-43.8349  62.4475  	-43.5549  62.7267  	-43.4049  63.5659  	-43.4649  64.3551  	-43.2349  65.4743  	-43.1049  66.6735  	-43.0949  68.1327  	-43.3549  69.5319  	-43.5649  71.1712  	-43.8949  72.9804  	-44.3249  75.0396  	-45.2749  76.3588  	-45.1449  77.2780  	-44.4949  77.6472  	-44.2849  78.1564  	-43.9849  78.4056  	-43.9349  79.1248  	-44.0949  80.0440  	-44.2349  81.1632  	-44.4849  82.2824  	-44.5549  83.7816  	-44.2549  85.3209  	-44.2749  86.5001  	-44.6649  87.3493  	-45.0349  87.9085  	-45.1649  88.2577  	-45.1649  88.5369  	-45.0049  88.6861  	-44.5049  89.1953  	-44.4249  89.6645  	
-46.9041  34.9900  	-46.8641  35.4092  	-46.9441  35.7684  	-46.8141  36.5776  	-46.7141  36.9068  	-47.2741  38.0460  	-47.0141  38.0852  	-46.7141  38.1545  	-46.5041  38.4737  	-46.4641  38.7429  	-46.5541  39.0821  	-46.6041  39.4713  	-46.6741  39.8405  	-47.2441  40.4697  	-47.6141  40.8489  	-47.0841  40.9581  	-46.8141  41.3173  	-46.6841  41.9165  	-46.6441  42.4057  	-46.9341  42.8249  	-47.0541  43.3541  	-47.3441  44.1134  	-47.2341  44.7026  	-46.9441  45.5618  	-46.9041  46.3910  	-46.9141  47.9702  	-46.7741  49.1794  	-46.4441  50.5886  	-46.0041  51.7978  	-45.9641  53.2070  	-46.0841  54.3762  	-46.0441  55.7754  	-46.0041  56.8446  	-46.5141  58.2938  	-46.2941  59.6630  	-45.2541  60.4923  	-45.1041  61.2815  	-45.4541  61.9507  	-45.3441  62.2299  	-45.2641  62.2491  	-45.3941  62.0683  	-45.4741  62.2975  	-45.1441  62.4967  	-44.8841  63.2959  	-44.9941  64.1351  	-44.7241  65.1943  	-44.7341  66.2435  	-44.7341  67.5927  	-44.9541  69.0319  	-45.1941  70.7012  	-45.3041  72.3904  	-45.7441  74.3896  	-46.6841  75.6388  	-46.7241  76.4680  	-46.1741  76.6672  	-45.9941  77.1064  	-45.6841  77.3356  	-45.5341  78.0748  	-45.6241  79.1540  	-45.7641  80.2632  	-46.0041  81.1924  	-46.0841  82.6216  	-45.9541  83.9009  	-46.0041  84.8901  	-46.3041  85.7893  	-46.6141  86.3585  	-46.6541  86.8077  	-46.6141  86.8769  	-46.5841  86.7161  	-46.1341  87.4353  	-46.1141  87.6545  	
-48.0934  37.1100  	-48.1434  37.4692  	-48.3634  37.6884  	-48.1234  38.3776  	-47.9334  38.8468  	-48.4634  39.7360  	-48.2034  39.7652  	-47.7234  40.0845  	-47.6434  40.1537  	-47.6334  40.3429  	-47.7834  40.4121  	-47.8934  40.8013  	-47.9534  41.0405  	-48.5734  41.7197  	-48.8834  41.9989  	-48.3234  42.0681  	-48.0234  42.4573  	-47.8634  42.9865  	-47.9534  43.1757  	-48.3134  43.5449  	-48.4834  44.0041  	-48.7434  44.6234  	-48.7534  45.4026  	-48.3334  46.2318  	-48.2134  46.9910  	-48.1434  48.4502  	-48.1034  49.5194  	-47.7134  50.7686  	-47.2934  51.9078  	-47.2634  53.2270  	-47.4334  54.4162  	-47.4434  55.6854  	-47.2934  56.7546  	-47.7634  58.1538  	-47.5634  59.4030  	-46.4834  60.1723  	-46.2534  60.9515  	-46.6534  61.5107  	-46.5834  61.7799  	-46.5934  61.7891  	-46.6534  61.6283  	-46.6834  61.8375  	-46.3934  61.8767  	-46.1534  62.5459  	-46.2634  63.2451  	-45.9534  64.1443  	-45.9634  65.2235  	-46.0234  66.6527  	-46.2234  67.9119  	-46.4534  69.5612  	-46.6934  71.2204  	-47.1234  73.0796  	-47.9434  74.2388  	-47.8734  75.1180  	-47.2734  75.3272  	-47.1334  75.7464  	-46.8934  75.9456  	-46.9334  76.5648  	-47.0634  77.5240  	-47.2034  78.7332  	-47.3834  79.7724  	-47.4334  81.1316  	-47.1934  82.2209  	-47.1934  83.1701  	-47.5034  84.0093  	-47.8434  84.4185  	-48.0034  84.7277  	-48.0334  84.7569  	-47.9834  84.5861  	-47.4734  85.2053  	-47.2734  85.3745  	
-48.7126  39.4100  	-48.9126  39.8492  	-49.0626  39.9784  	-48.7526  40.5176  	-48.4526  40.9068  	-48.9726  41.7460  	-48.6426  41.6152  	-48.3626  41.8345  	-48.2926  41.9337  	-48.3326  42.0629  	-48.4626  42.1021  	-48.5126  42.4813  	-48.5126  42.6805  	-49.1726  43.2197  	-49.5426  43.5289  	-48.9526  43.5281  	-48.6826  43.6673  	-48.4626  44.0365  	-48.5826  44.2057  	-48.7926  44.5149  	-48.9326  44.8941  	-49.2226  45.5634  	-49.2126  46.1526  	-48.8626  46.9618  	-48.7926  47.5910  	-48.7626  48.9902  	-48.6926  50.0394  	-48.3026  51.1186  	-47.9626  52.0978  	-47.8626  53.3370  	-47.9526  54.4662  	-47.9926  55.7954  	-47.9226  56.8546  	-48.3026  58.1338  	-48.1226  59.2230  	-47.1026  59.9123  	-46.9226  60.6515  	-47.3126  61.0607  	-47.2626  61.2799  	-47.1526  61.3191  	-47.2626  61.1183  	-47.3526  61.1475  	-47.0426  61.2567  	-46.8326  61.9359  	-46.8826  62.6251  	-46.5126  63.4043  	-46.5626  64.2835  	-46.6126  65.6427  	-46.8626  66.8719  	-47.0026  68.5712  	-47.2426  70.1704  	-47.7026  71.9496  	-48.5226  73.2588  	-48.3926  73.9980  	-47.8526  74.1072  	-47.8026  74.4364  	-47.6326  74.5056  	-47.5826  75.0048  	-47.7226  75.9440  	-47.8126  76.9632  	-48.0126  78.0924  	-48.0326  79.4216  	-47.7426  80.4409  	-47.8926  81.2801  	-48.2726  81.8893  	-48.6126  82.1085  	-48.6826  82.5077  	-48.5526  82.6769  	-48.4426  82.6161  	-48.0426  83.2053  	-47.8626  83.2945  	
-50.0218  40.7800  	-50.1918  41.1692  	-50.3718  41.2084  	-50.1618  41.8576  	-49.9118  42.1768  	-50.4518  43.0360  	-50.1318  42.7152  	-49.8618  42.8245  	-49.7718  42.9237  	-49.6818  43.1029  	-49.8018  42.9321  	-49.8818  43.2213  	-49.9218  43.4605  	-50.5618  43.9497  	-50.8618  44.0889  	-50.2818  43.9781  	-50.0418  44.1173  	-49.8818  44.3865  	-49.9918  44.4857  	-50.3418  44.7749  	-50.3818  45.1841  	-50.7218  45.6734  	-50.7218  46.2226  	-50.3018  46.9518  	-50.1118  47.5810  	-50.0218  48.9602  	-49.9518  49.8494  	-49.6818  50.8686  	-49.3518  51.8178  	-49.3318  53.0070  	-49.4918  54.0362  	-49.5018  55.3854  	-49.3318  56.4046  	-49.6218  57.6638  	-49.3818  58.5130  	-48.5018  59.1623  	-48.3918  59.8115  	-48.7918  60.2607  	-48.7818  60.3399  	-48.6318  60.3891  	-48.5318  60.2583  	-48.7318  60.2675  	-48.4618  60.3467  	-48.2618  60.8559  	-48.3618  61.5451  	-48.0918  62.2743  	-48.1218  63.1135  	-48.0618  64.4227  	-48.2418  65.6119  	-48.3118  67.1212  	-48.4918  68.8204  	-48.9818  70.6596  	-49.8618  71.6988  	-49.9018  72.3080  	-49.4818  72.1872  	-49.3218  72.5264  	-49.0718  72.6556  	-48.9118  73.2648  	-48.9118  74.2340  	-49.0718  75.2432  	-49.4218  76.1524  	-49.5818  77.4116  	-49.4118  78.2909  	-49.4918  79.0701  	-49.7318  79.6493  	-49.9918  80.0585  	-49.9918  80.4577  	-49.8918  80.6369  	-49.8318  80.3761  	-49.5718  80.7453  	-49.4218  80.7445  	
-50.9310  42.7900  	-50.9710  42.9692  	-51.3110  43.1784  	-51.0910  43.7176  	-50.8610  43.8668  	-51.1910  44.6760  	-50.8210  44.2752  	-50.6310  44.2545  	-50.7110  44.1437  	-50.7610  44.1729  	-50.7910  44.2421  	-50.8410  44.5013  	-50.8310  44.6505  	-51.4510  45.0797  	-51.8010  45.1889  	-51.1810  44.8881  	-50.9810  44.8873  	-50.8210  45.2065  	-51.0010  45.2457  	-51.3010  45.3949  	-51.4210  45.5841  	-51.6110  46.1234  	-51.5210  46.6026  	-51.2010  47.3218  	-51.0010  47.8110  	-50.9510  49.0902  	-50.9710  49.9794  	-50.7110  50.9586  	-50.3110  51.8578  	-50.2210  52.9970  	-50.2010  53.9762  	-50.1510  55.2754  	-50.1210  56.2346  	-50.5110  57.5038  	-50.3210  58.4330  	-49.4410  58.8523  	-49.3710  59.4615  	-49.7210  59.8307  	-49.6210  59.8599  	-49.4010  59.8091  	-49.2210  59.5583  	-49.4010  59.5575  	-49.3010  59.4667  	-49.1210  59.9759  	-49.3310  60.7351  	-48.9710  61.4143  	-48.9310  62.2335  	-48.8310  63.5127  	-48.9810  64.5819  	-49.0810  65.8112  	-49.3310  67.4004  	-49.9310  69.2396  	-50.8610  70.3688  	-50.9310  71.1180  	-50.3310  71.0972  	-50.1010  71.2664  	-49.8610  71.2656  	-49.7410  71.5948  	-49.8810  72.4040  	-50.0310  73.3632  	-50.3210  74.3324  	-50.4810  75.6516  	-50.3410  76.6109  	-50.3810  77.3101  	-50.5510  77.7793  	-50.8010  78.0185  	-50.8710  78.1277  	-50.7710  78.2169  	-50.7710  78.0961  	-50.3910  78.4053  	-50.3110  78.5045  	
-52.3902  44.8100  	-52.2602  44.7292  	-52.6302  44.8684  	-52.4202  45.1476  	-52.2002  45.2368  	-52.6602  46.0460  	-52.2402  45.8552  	-52.0402  45.8745  	-52.0802  45.6737  	-52.0502  45.4529  	-52.2102  45.3621  	-52.2002  45.4913  	-52.1202  45.7105  	-52.8102  46.1397  	-53.2302  46.2889  	-52.5402  45.8781  	-52.3302  45.7373  	-52.2302  45.9765  	-52.3402  45.8857  	-52.6602  46.0549  	-52.6302  46.2541  	-52.8202  46.7134  	-52.8202  47.0826  	-52.5902  47.7418  	-52.4602  48.3510  	-52.3602  49.4302  	-52.2202  50.1094  	-51.8402  50.9986  	-51.5502  51.7878  	-51.5202  52.7970  	-51.4402  53.7962  	-51.5002  54.8654  	-51.5102  55.8246  	-51.9302  57.0038  	-51.6802  57.8430  	-50.6602  58.4223  	-50.5602  59.0015  	-50.9202  59.4107  	-50.8402  59.2399  	-50.7502  59.0391  	-50.6302  58.6483  	-50.7402  58.7775  	-50.7202  58.6567  	-50.4902  59.1359  	-50.6902  59.6951  	-50.2302  60.3643  	-50.2102  61.0335  	-50.1702  62.1927  	-50.3002  63.2119  	-50.4302  64.6412  	-50.6302  66.2304  	-51.2202  67.9796  	-52.1702  69.1188  	-52.1402  69.7380  	-51.5102  69.6072  	-51.2802  69.6264  	-51.0802  69.5256  	-51.0702  69.8548  	-51.2102  70.6740  	-51.3702  71.6032  	-51.6302  72.6524  	-51.8402  73.9316  	-51.5502  74.5809  	-51.6602  75.1301  	-51.9502  75.3893  	-52.1902  75.6885  	-52.2502  75.9077  	-52.1302  75.9569  	-52.0302  75.7661  	-51.6102  75.8553  	-51.6602  75.6645  	
-53.5494  46.9000  	-53.4094  46.4792  	-53.7894  46.4984  	-53.6694  46.9676  	-53.4194  47.0568  	-53.7394  47.7960  	-53.3394  47.5252  	-53.1394  47.3945  	-53.1594  47.0737  	-53.1394  46.8829  	-53.3094  46.7121  	-53.2594  46.7213  	-53.2694  46.7205  	-53.9894  47.1697  	-54.3894  47.2889  	-53.6894  46.9081  	-53.4394  46.6373  	-53.3794  46.7065  	-53.4794  46.5557  	-53.7994  46.5749  	-53.6594  46.7141  	-53.9294  47.0234  	-53.8694  47.2826  	-53.6594  48.0118  	-53.5394  48.5310  	-53.4294  49.5702  	-53.3194  50.2594  	-53.0294  51.1386  	-52.5794  51.9278  	-52.4994  52.7870  	-52.6194  53.6362  	-52.6994  54.6854  	-52.6094  55.6946  	-53.0094  56.9238  	-52.7094  57.6330  	-51.7594  58.1023  	-51.6494  58.6115  	-51.9594  58.8607  	-51.8394  58.6899  	-51.7494  58.4791  	-51.6394  58.1683  	-51.8094  58.1475  	-51.8594  57.9867  	-51.7294  58.4359  	-51.8494  59.0051  	-51.2794  59.5543  	-51.2494  60.0835  	-51.1094  61.1127  	-51.3094  62.1819  	-51.5194  63.6512  	-51.7794  65.1404  	-52.2994  66.8496  	-53.1894  67.8288  	-53.1994  68.3280  	-52.5794  68.1572  	-52.3594  68.1764  	-52.1294  68.1156  	-52.0894  68.4948  	-52.2794  69.3140  	-52.5094  70.2432  	-52.7694  70.9024  	-52.9394  72.0116  	-52.7294  72.8909  	-52.8094  73.5501  	-53.0094  73.8993  	-53.2394  74.0785  	-53.2094  74.1477  	-53.1594  74.0369  	-53.0794  73.5661  	-52.6694  73.9153  	-52.6494  73.8845  	
-53.9286  48.6100  	-53.8286  48.2992  	-54.1686  48.5284  	-53.9786  48.9476  	-53.5386  48.6668  	-53.9186  49.2160  	-53.5586  48.7852  	-53.4786  48.5745  	-53.5586  48.2337  	-53.4786  48.0829  	-53.5786  47.9021  	-53.7086  47.9913  	-53.6286  47.8105  	-54.1586  48.0897  	-54.6186  48.0989  	-54.0286  47.6981  	-53.7886  47.4373  	-53.7486  47.5665  	-53.7886  47.3457  	-54.0486  47.3149  	-53.8986  47.2941  	-54.1186  47.5734  	-54.0786  47.7926  	-53.8386  48.4318  	-53.8586  48.8910  	-53.7786  49.9202  	-53.6186  50.6294  	-53.2986  51.4486  	-52.9186  52.1178  	-52.6486  52.7770  	-52.7986  53.7162  	-52.8486  54.7154  	-52.8586  55.6346  	-53.3586  56.8138  	-53.1186  57.4330  	-52.0286  57.8723  	-51.7686  58.2515  	-52.2186  58.3407  	-52.0486  58.2099  	-51.9986  57.9791  	-51.9586  57.4983  	-52.0486  57.4275  	-52.0586  57.2967  	-51.9986  57.6759  	-52.1286  58.2451  	-51.5786  58.6643  	-51.4986  59.3335  	-51.3386  60.4527  	-51.5086  61.3119  	-51.7086  62.5612  	-51.8886  64.0904  	-52.4786  65.7296  	-53.3786  66.6788  	-53.5586  67.2480  	-52.9186  67.1172  	-52.6486  67.1364  	-52.4286  66.9956  	-52.2886  67.1148  	-52.4286  67.7740  	-52.6986  68.5932  	-53.0186  69.3924  	-53.2286  70.6416  	-53.0486  71.4109  	-53.1486  72.0101  	-53.4286  72.1793  	-53.5386  72.2785  	-53.4186  72.2777  	-53.2886  72.1969  	-53.2286  71.8961  	-52.8486  72.0553  	-53.0186  72.1545  	
-53.6078  51.0700  	-53.5478  50.4992  	-53.8878  50.4684  	-53.8078  50.9176  	-53.4678  50.6368  	-53.9878  51.2660  	-53.6178  50.7952  	-53.2878  50.5445  	-53.2978  50.1637  	-53.2378  49.8129  	-53.4578  49.4621  	-53.5778  49.5513  	-53.6978  49.3805  	-54.3078  49.9197  	-54.5878  49.7889  	-53.8978  49.2681  	-53.5578  48.8873  	-53.4278  48.8165  	-53.5678  48.4557  	-53.9678  48.3949  	-53.9078  48.3341  	-54.2178  48.6834  	-54.1478  48.8026  	-53.8578  49.4518  	-53.6878  49.8510  	-53.5178  50.7602  	-53.4178  51.3794  	-53.0878  51.9986  	-52.7778  52.6078  	-52.6678  53.1770  	-52.7978  54.1262  	-52.8278  55.1054  	-52.7878  55.9846  	-53.1278  57.0538  	-52.8078  57.6130  	-51.7178  58.0023  	-51.6078  58.2515  	-52.1378  58.5607  	-52.1778  58.3799  	-52.1178  58.1391  	-51.8078  57.6083  	-51.8878  57.5275  	-51.7478  57.3467  	-51.6878  57.5359  	-51.8878  57.9251  	-51.5178  58.4543  	-51.5278  58.9435  	-51.3778  60.0227  	-51.5378  60.9519  	-51.5578  62.2912  	-51.6778  63.5904  	-52.1678  65.2396  	-53.1378  66.2288  	-53.3578  66.8180  	-52.8478  66.6472  	-52.6578  66.5764  	-52.3678  66.2956  	-52.2178  66.4748  	-52.2878  67.0440  	-52.4578  67.8232  	-52.8178  68.5124  	-53.0678  69.6516  	-52.9478  70.4909  	-53.1178  71.1201  	-53.4278  71.2793  	-53.5078  71.2485  	-53.2478  71.0977  	-52.9678  70.9169  	-52.9078  70.4861  	-52.6478  70.4553  	-52.9178  70.4445  	
-54.2070  52.7900  	-54.1170  52.3992  	-54.4370  52.2684  	-54.2770  52.4876  	-53.9670  52.2268  	-54.3770  52.7660  	-53.9170  52.3552  	-53.6670  52.0545  	-53.6870  51.5537  	-53.6470  51.0729  	-53.9170  50.7321  	-54.0670  50.6813  	-54.1370  50.5205  	-54.7570  50.8797  	-55.0370  50.7789  	-54.3070  50.2681  	-53.9270  49.7973  	-53.7670  49.5965  	-53.9470  49.2657  	-54.3770  49.2049  	-54.3770  49.0841  	-54.5970  49.3634  	-54.4170  49.4026  	-54.1770  49.9418  	-54.0470  50.3010  	-53.8270  51.0802  	-53.7270  51.6194  	-53.4670  52.2586  	-53.1670  52.8378  	-52.9770  53.4070  	-53.0470  54.3162  	-53.0770  55.2454  	-53.0870  56.0346  	-53.4670  57.0438  	-53.1570  57.4530  	-52.0770  57.7823  	-51.8070  58.0015  	-52.3070  58.2107  	-52.3770  58.1699  	-52.3170  57.8691  	-52.0670  57.3483  	-52.2170  57.1875  	-52.1270  56.9167  	-51.9770  57.1059  	-52.2270  57.3751  	-51.7470  57.7943  	-51.6870  58.3635  	-51.5770  59.4127  	-51.7370  60.3019  	-51.8770  61.5512  	-52.0170  62.7604  	-52.5070  64.4596  	-53.5470  65.3488  	-53.6670  65.7580  	-53.0070  65.6172  	-52.7170  65.4964  	-52.5070  65.1856  	-52.4770  65.3548  	-52.6370  65.8940  	-52.9070  66.7632  	-53.2370  67.2224  	-53.3970  68.1116  	-53.2070  68.9909  	-53.4070  69.6801  	-53.5770  69.7293  	-53.7070  69.7985  	-53.5070  69.7577  	-53.3470  69.4769  	-53.2970  68.9661  	-52.9870  68.9053  	-53.1070  68.8745  	
-54.2062  54.1400  	-54.2162  53.8792  	-54.3862  53.4684  	-54.0462  53.5376  	-53.8062  53.3768  	-54.1662  53.6960  	-53.8862  53.1852  	-53.6762  52.9845  	-53.7062  52.5037  	-53.6562  52.1929  	-53.8762  51.7821  	-53.9362  51.6513  	-53.9862  51.4205  	-54.6362  51.5497  	-54.9862  51.3589  	-54.3962  50.7981  	-54.0962  50.3473  	-53.9862  50.2165  	-54.0862  49.8257  	-54.3062  49.6849  	-54.2762  49.4641  	-54.3962  49.6334  	-54.4062  49.7426  	-54.1862  50.2018  	-54.0862  50.4310  	-53.9362  51.1302  	-53.7262  51.5694  	-53.3462  52.2786  	-52.8062  52.7778  	-52.6862  53.3570  	-53.0062  54.1962  	-53.1362  55.0254  	-53.2662  55.7546  	-53.7762  56.7738  	-53.2162  57.2030  	-52.0362  57.5923  	-51.5662  57.6715  	-51.9662  57.7607  	-52.1662  57.5299  	-52.2462  57.2591  	-52.0762  56.6583  	-52.3462  56.4575  	-52.2562  56.2267  	-52.0462  56.3559  	-52.2262  56.4851  	-51.7062  57.0043  	-51.5062  57.5635  	-51.4162  58.5027  	-51.6762  59.4819  	-51.8562  60.6312  	-52.0662  61.8604  	-52.5162  63.3996  	-53.4362  64.2588  	-53.5462  64.7980  	-52.9262  64.6172  	-52.5962  64.3964  	-52.4462  63.9656  	-52.4762  64.0848  	-52.7062  64.5140  	-52.9162  65.5032  	-53.1862  66.1124  	-53.2962  67.1816  	-53.0862  67.9109  	-53.2762  68.2901  	-53.5762  68.3493  	-53.6862  68.2185  	-53.4862  68.0077  	-53.2562  67.7369  	-53.1562  67.3161  	-52.8962  67.0953  	-53.0162  67.0545  	
-53.9654  55.0800  	-53.9154  54.8892  	-54.2054  54.7084  	-53.8554  54.6476  	-53.6054  54.4468  	-53.9954  54.7260  	-53.7454  54.0852  	-53.5054  53.8145  	-53.4454  53.1637  	-53.3954  52.9529  	-53.5754  52.6721  	-53.7354  52.5213  	-53.7954  52.1905  	-54.4954  52.1297  	-54.9254  51.9089  	-54.2054  51.2181  	-53.8254  50.6673  	-53.6854  50.5265  	-53.6854  50.2557  	-53.9154  50.1749  	-54.0054  49.8341  	-54.2354  49.8634  	-54.3654  49.8826  	-54.0254  50.2218  	-53.8954  50.3510  	-53.6454  51.0902  	-53.4154  51.6394  	-53.0054  52.2786  	-52.5254  52.6378  	-52.5254  53.2170  	-52.8454  53.9762  	-53.0254  54.7854  	-53.0554  55.4646  	-53.5254  56.4238  	-53.0454  56.9030  	-51.8254  57.2923  	-51.2954  57.4215  	-51.7154  57.4007  	-51.8854  57.1399  	-52.1154  56.7091  	-51.8654  56.0783  	-52.1654  55.9875  	-52.0354  55.8367  	-51.5954  55.9259  	-51.7454  56.0151  	-51.3754  56.2443  	-51.2754  56.6835  	-51.1354  57.6727  	-51.3654  58.5619  	-51.5754  59.9112  	-51.7454  61.1904  	-52.1654  62.6896  	-53.1154  63.4488  	-53.2554  63.8080  	-52.6654  63.4772  	-52.4454  63.2764  	-52.1754  62.8656  	-52.1554  63.0248  	-52.2854  63.5240  	-52.5954  64.3332  	-52.9754  64.8324  	-53.1054  65.7316  	-52.9354  66.3509  	-53.0954  66.9601  	-53.3454  67.1593  	-53.3654  67.0385  	-53.0554  66.6677  	-52.8254  66.3869  	-52.7554  65.9261  	-52.6254  65.6453  	-52.9054  65.3245  	
-53.6246  56.1900  	-53.6446  56.0192  	-54.0546  55.7984  	-53.7446  55.6276  	-53.3746  55.2268  	-53.7146  55.4160  	-53.2646  54.6952  	-53.0846  54.4745  	-53.1046  53.9337  	-53.0246  53.7529  	-53.3246  53.3121  	-53.6746  53.0513  	-53.7446  52.8205  	-54.3846  52.6397  	-54.5946  52.3189  	-53.7646  51.6681  	-53.4046  51.1873  	-53.2446  50.9765  	-53.3946  50.6357  	-53.6746  50.5149  	-53.7846  50.1241  	-54.0746  50.0434  	-54.0946  50.0326  	-53.7446  50.3218  	-53.3746  50.5010  	-53.1146  51.2602  	-53.0246  51.7594  	-52.7446  52.3086  	-52.2946  52.6378  	-52.3146  53.1270  	-52.5846  53.8762  	-52.5746  54.7754  	-52.6646  55.4146  	-53.0946  56.2938  	-52.6846  56.6430  	-51.4846  56.8223  	-50.9446  56.9115  	-51.2846  56.9507  	-51.4446  56.7499  	-51.6846  56.2991  	-51.5946  55.7183  	-51.8246  55.5175  	-51.7746  55.2267  	-51.3046  55.3159  	-51.3546  55.4651  	-51.0446  55.6543  	-50.8546  56.1935  	-50.6746  57.1227  	-50.9646  58.0219  	-51.2346  59.1612  	-51.3946  60.4404  	-51.8146  61.8796  	-52.7546  62.6388  	-52.9646  63.0480  	-52.2946  62.8372  	-51.9946  62.5764  	-51.6846  62.2156  	-51.6646  62.3248  	-51.9346  62.6640  	-52.3346  63.3932  	-52.6746  63.9124  	-52.7946  64.8816  	-52.5846  65.6609  	-52.6946  66.2401  	-52.8646  66.3393  	-52.9346  66.0985  	-52.7446  65.6977  	-52.5146  65.2969  	-52.4646  64.6761  	-52.3046  64.4053  	-52.4646  64.3245  	
-53.6938  57.6000  	-53.7438  57.1392  	-54.1738  56.8984  	-53.8838  56.6476  	-53.4638  56.2168  	-53.6638  56.2960  	-53.3238  55.8152  	-53.1838  55.4445  	-53.1238  54.8737  	-53.0538  54.4429  	-53.4238  54.0321  	-53.7038  53.7513  	-53.9338  53.4105  	-54.4938  53.1497  	-54.6438  53.0089  	-53.8838  52.3181  	-53.3838  51.6573  	-53.2238  51.3565  	-53.3438  51.0157  	-53.8038  50.8049  	-53.9438  50.3941  	-54.3338  50.3534  	-54.2838  50.4326  	-53.8138  50.5818  	-53.4538  50.5410  	-53.1038  51.2102  	-52.9438  51.5994  	-52.7138  52.1386  	-52.3638  52.5078  	-52.4538  53.0370  	-52.8838  53.7262  	-52.8738  54.5954  	-52.8438  55.1846  	-53.1738  56.0238  	-52.6838  56.3830  	-51.4138  56.6223  	-50.8538  56.5815  	-51.2638  56.5807  	-51.4238  56.3399  	-51.6938  55.9291  	-51.6938  55.2483  	-51.8838  55.0175  	-51.7538  54.7467  	-51.3638  54.7859  	-51.3538  54.9151  	-50.9738  55.0843  	-50.9038  55.4235  	-50.8238  56.4027  	-51.0638  57.3019  	-51.2738  58.4212  	-51.4338  59.6604  	-51.8338  61.0196  	-52.6238  61.7788  	-52.8438  62.2080  	-52.2638  61.7872  	-52.0638  61.5764  	-51.8038  61.1356  	-51.8338  61.1848  	-52.0638  61.6440  	-52.3738  62.6932  	-52.7138  63.2024  	-52.7938  63.9116  	-52.6238  64.4809  	-52.8238  64.8801  	-52.9638  64.8793  	-53.0338  64.7085  	-52.7838  64.3277  	-52.5238  64.0069  	-52.4838  63.4761  	-52.2838  63.1653  	-52.5038  62.8045  	
-54.0330  58.6600  	-54.1530  58.1292  	-54.5730  57.8484  	-54.2130  57.6976  	-53.7330  57.4068  	-53.8030  57.4560  	-53.5730  56.8652  	-53.4730  56.4345  	-53.3830  55.8237  	-53.5530  55.3729  	-53.9230  54.8421  	-54.1830  54.4713  	-54.2730  54.1505  	-54.8630  54.1797  	-55.0930  53.7289  	-54.2630  53.0181  	-53.6330  52.3073  	-53.5030  51.9765  	-53.7730  51.3557  	-54.2330  51.1849  	-54.3330  50.7841  	-54.6030  50.8834  	-54.5330  50.7426  	-54.0430  51.0218  	-53.7030  51.0110  	-53.4230  51.5102  	-53.3230  51.7894  	-52.9930  52.1386  	-52.6830  52.4878  	-52.7130  53.1170  	-53.0330  53.8262  	-53.1430  54.6454  	-53.1230  55.2146  	-53.4930  55.9538  	-52.9130  56.1330  	-51.6630  56.2423  	-51.1430  56.1715  	-51.6330  56.2107  	-51.7930  56.0599  	-51.9030  55.7091  	-52.0230  55.0183  	-52.2030  54.7575  	-52.0630  54.2767  	-51.7330  54.2459  	-51.6130  54.3751  	-51.1930  54.5943  	-51.1730  54.9435  	-51.0530  55.8427  	-51.2830  56.7819  	-51.5630  57.8512  	-51.7630  58.9204  	-52.1230  60.3796  	-52.9130  61.1088  	-53.0630  61.4980  	-52.3930  61.1272  	-52.1330  60.8064  	-51.9830  60.3356  	-52.0930  60.3848  	-52.3630  60.7240  	-52.7330  61.5632  	-53.0830  62.0424  	-53.2330  62.9716  	-52.9530  63.5609  	-52.9830  63.9701  	-53.0630  63.9293  	-53.1530  63.6285  	-53.0330  63.2277  	-52.8830  62.9169  	-52.8830  62.3161  	-52.6730  61.8253  	-52.7630  61.6045  	
-53.3223  60.3100  	-53.6423  60.0492  	-53.9223  59.4684  	-53.4823  59.1276  	-52.9223  58.5568  	-52.6623  58.3560  	-52.3823  57.8652  	-52.4723  57.4945  	-52.6823  56.8537  	-53.0923  56.4329  	-53.2423  55.9521  	-53.3923  55.5113  	-53.4123  55.1105  	-53.8523  54.8797  	-54.0323  54.3989  	-53.2623  53.7981  	-52.7723  53.0873  	-52.7723  52.6865  	-53.0023  52.0857  	-53.4223  51.8649  	-53.4123  51.4741  	-53.5923  51.3834  	-53.5523  51.2326  	-53.1023  51.3718  	-52.7623  51.3310  	-52.4523  51.7602  	-52.3123  51.9794  	-52.0423  52.3686  	-51.7723  52.7778  	-51.7023  53.2170  	-51.9123  53.8762  	-52.1423  54.6754  	-52.2723  55.1746  	-52.6523  55.7638  	-52.2023  55.9230  	-50.8623  56.1223  	-50.2323  56.0815  	-50.5623  56.0807  	-50.5823  55.8299  	-50.8423  55.4591  	-50.9423  54.6783  	-51.2523  54.3075  	-51.2023  53.9267  	-50.8623  53.8759  	-50.6523  53.9951  	-50.1723  54.1843  	-50.1023  54.4935  	-49.9923  55.4227  	-50.2623  56.1819  	-50.6123  57.1812  	-50.7923  58.3104  	-51.2423  59.7896  	-52.0323  60.4888  	-52.1623  60.7880  	-51.4223  60.4772  	-51.1123  60.1164  	-51.0323  59.6356  	-51.1623  59.6148  	-51.4923  59.8640  	-51.8823  60.7232  	-52.2023  61.3124  	-52.2923  62.1716  	-51.9723  62.7609  	-51.9923  63.1401  	-52.1723  62.9493  	-52.3023  62.4885  	-52.1123  62.0877  	-51.8823  61.8069  	-51.8823  61.1561  	-51.7023  60.6953  	-51.7923  60.2845  	
-52.9815  61.3300  	-53.2615  61.1092  	-53.5615  60.6184  	-53.1015  60.3276  	-52.5815  59.7568  	-52.4315  59.5760  	-52.1715  58.8652  	-52.2515  58.4045  	-52.3415  57.8337  	-52.5515  57.3829  	-52.8615  56.8121  	-53.0615  56.4913  	-53.1415  56.1105  	-53.6015  55.7497  	-53.8615  55.1789  	-53.1015  54.4481  	-52.5615  53.4873  	-52.5315  53.1265  	-52.7315  52.5957  	-53.1015  52.4249  	-53.1415  52.1641  	-53.3515  51.9734  	-53.3115  51.7326  	-52.8515  51.7818  	-52.5315  51.5910  	-52.2015  51.9702  	-52.0415  52.1694  	-51.7215  52.5986  	-51.4915  52.9978  	-51.4615  53.4770  	-51.7415  53.9962  	-51.8615  54.6854  	-51.9215  55.1746  	-52.2815  55.8138  	-51.8415  55.9030  	-50.5515  55.9323  	-49.9415  56.0415  	-50.3515  56.0507  	-50.3015  55.6399  	-50.5315  55.2691  	-50.6315  54.4883  	-50.9715  53.9875  	-50.8915  53.6567  	-50.5215  53.6159  	-50.3515  53.6551  	-49.8315  53.8943  	-49.7615  53.9935  	-49.7415  54.8027  	-50.0115  55.6519  	-50.3515  56.7112  	-50.4015  57.8804  	-50.7815  59.2896  	-51.6115  60.0388  	-51.7915  60.1980  	-51.1715  59.7972  	-50.9815  59.4464  	-50.8515  58.8756  	-50.9415  58.8848  	-51.2015  59.2340  	-51.4715  60.0432  	-51.7915  60.6324  	-51.9815  61.2616  	-51.7615  61.6009  	-51.7815  61.8701  	-52.0015  62.0493  	-52.0615  61.7485  	-51.7215  61.4577  	-51.5115  61.0969  	-51.4815  60.2361  	-51.3315  59.7453  	-51.5615  58.9445  	
-50.4807  61.8900  	-50.7807  61.8392  	-51.1707  61.4984  	-50.6807  61.2276  	-50.1507  60.6768  	-49.9707  60.2360  	-49.7007  59.3852  	-49.8807  58.9045  	-49.9107  58.3937  	-50.1307  58.0429  	-50.5007  57.5321  	-50.6807  57.2613  	-50.6907  56.7005  	-51.2207  56.3397  	-51.3807  55.6089  	-50.6407  54.6881  	-50.1607  53.8073  	-50.0607  53.3565  	-50.2807  52.8257  	-50.7107  52.5849  	-50.7907  52.3041  	-50.9707  52.0934  	-50.9507  51.7126  	-50.4007  51.5918  	-50.0707  51.4710  	-49.8207  51.7502  	-49.6507  52.0594  	-49.3207  52.4586  	-49.0307  52.8278  	-49.0507  53.2670  	-49.2807  53.6562  	-49.3907  54.3854  	-49.4507  54.8646  	-49.8407  55.4438  	-49.4607  55.6130  	-48.1007  55.5523  	-47.4007  55.5415  	-47.8007  55.5007  	-47.8207  55.0599  	-47.9507  54.8191  	-48.0707  53.9883  	-48.4407  53.5575  	-48.4007  53.0067  	-48.1107  52.9359  	-47.9007  52.9351  	-47.4307  53.1743  	-47.2007  53.4535  	-47.1707  54.1227  	-47.4407  54.8419  	-47.7507  55.9812  	-47.9807  57.0904  	-48.3407  58.4396  	-49.1607  59.0788  	-49.3107  59.3080  	-48.6007  58.7472  	-48.3407  58.4664  	-48.2107  58.0656  	-48.2707  57.9748  	-48.6007  58.2740  	-48.9407  58.9132  	-49.3607  59.3824  	-49.5807  59.9816  	-49.3907  60.6209  	-49.3207  60.9101  	-49.4607  61.0693  	-49.4307  60.7385  	-49.0607  60.1577  	-48.8407  59.5969  	-48.8907  58.7261  	-48.8307  58.2353  	-49.1007  57.6645  	
-51.7699  63.1400  	-51.9299  62.8892  	-52.3799  62.5884  	-51.9299  62.2376  	-51.4999  61.5568  	-51.3399  61.0960  	-51.1099  60.2452  	-51.1199  59.8745  	-51.3499  59.3937  	-51.5099  58.9929  	-51.8099  58.3721  	-51.9599  57.9313  	-52.0699  57.3205  	-52.6199  56.7597  	-52.9599  56.0789  	-52.1899  55.1581  	-51.6199  54.3273  	-51.4899  53.9965  	-51.5799  53.3257  	-51.9499  53.0349  	-52.0599  52.6941  	-52.3599  52.4034  	-52.3999  52.1726  	-51.8999  51.9418  	-51.4499  51.8110  	-51.0299  52.0902  	-50.8299  52.1794  	-50.4999  52.5086  	-50.1999  52.8578  	-50.3299  53.2070  	-50.7099  53.6762  	-50.7199  54.3454  	-50.6799  54.8146  	-51.0199  55.3838  	-50.6499  55.4230  	-49.3799  55.3823  	-48.7499  55.3815  	-48.9599  55.1307  	-48.9799  54.6899  	-49.2899  54.3491  	-49.2899  53.5983  	-49.6499  53.1775  	-49.5799  52.5867  	-49.2199  52.4759  	-49.0199  52.4651  	-48.5999  52.7043  	-48.2899  53.0535  	-48.2999  53.6727  	-48.6499  54.2819  	-49.0099  55.2712  	-49.1699  56.5204  	-49.4999  57.7796  	-50.2999  58.5388  	-50.4899  58.8980  	-49.8199  58.3472  	-49.5099  57.9864  	-49.4199  57.3656  	-49.5199  57.1948  	-49.8499  57.3740  	-50.2099  58.1832  	-50.6199  58.7624  	-50.8599  59.5316  	-50.6599  60.0109  	-50.6099  60.2101  	-50.7799  60.1193  	-50.7099  59.5485  	-50.2899  59.1077  	-50.0199  58.6269  	-50.0899  57.9361  	-50.0599  57.4753  	-50.3299  56.8945  	
-49.9591  64.6700  	-50.0791  64.2192  	-50.6291  63.8284  	-50.1991  63.4176  	-49.8091  62.7568  	-49.5691  62.2360  	-49.2591  61.6552  	-49.1891  61.1345  	-49.4391  60.7637  	-49.4891  60.1129  	-49.9191  59.2121  	-50.1991  58.6113  	-50.3191  58.0205  	-50.9291  57.5997  	-51.1791  57.2089  	-50.3891  56.4081  	-49.7391  55.4573  	-49.5391  54.7565  	-49.6791  53.9757  	-50.1191  53.5349  	-50.2991  53.1141  	-50.5191  52.9234  	-50.4291  52.5626  	-49.8891  52.5018  	-49.5691  52.2910  	-49.1691  52.5702  	-48.9191  52.5294  	-48.6091  52.8486  	-48.3491  53.1078  	-48.4791  53.4570  	-48.8091  53.8962  	-48.8991  54.5354  	-48.8991  54.9946  	-49.1791  55.5438  	-48.7691  55.5330  	-47.5591  55.3023  	-46.7891  55.2715  	-47.1091  55.0907  	-47.1391  54.5799  	-47.4691  54.2491  	-47.4391  53.6383  	-47.7691  53.1675  	-47.7991  52.5167  	-47.5191  52.3359  	-47.2791  52.2351  	-46.8491  52.4443  	-46.3991  52.5935  	-46.2891  53.3127  	-46.7691  53.8919  	-47.1091  54.9412  	-47.3491  56.1004  	-47.7491  57.4996  	-48.5591  58.1388  	-48.6491  58.2580  	-47.9491  57.7772  	-47.5491  57.2664  	-47.4391  56.7456  	-47.5691  56.6448  	-47.9291  56.8740  	-48.4391  57.6232  	-48.8991  58.2424  	-49.1391  58.8016  	-48.8991  59.1609  	-48.7491  59.3801  	-48.7591  59.4193  	-48.7291  58.9585  	-48.3291  58.4777  	-48.1291  57.8369  	-48.3091  57.0061  	-48.3491  56.5353  	-48.4991  55.7845  	
-49.4583  65.9500  	-49.5883  65.4792  	-50.1283  64.9584  	-49.7783  64.5176  	-49.2183  63.7068  	-48.8983  63.3360  	-48.6883  62.7852  	-48.7383  62.1545  	-48.9083  61.5637  	-49.2383  61.0029  	-49.5483  60.0421  	-49.7483  59.4413  	-49.7883  58.7905  	-50.3283  58.4297  	-50.5383  58.0689  	-49.8883  57.1581  	-49.3083  56.0873  	-49.2483  55.5065  	-49.3483  54.5257  	-49.7183  53.9749  	-49.7883  53.4941  	-49.9283  53.3634  	-49.8583  53.0126  	-49.3083  52.8318  	-49.0583  52.5510  	-48.7583  52.8202  	-48.4883  52.7494  	-48.2083  52.9986  	-47.9183  53.1578  	-47.9683  53.4470  	-48.1683  53.8962  	-48.3683  54.5354  	-48.4783  54.9646  	-48.8383  55.4038  	-48.3983  55.4330  	-47.1083  55.2423  	-46.3083  55.0915  	-46.5483  54.8207  	-46.4983  54.4699  	-46.8883  54.0491  	-46.8683  53.3383  	-47.2683  52.8775  	-47.2483  52.2967  	-46.9983  52.0359  	-46.6683  51.8151  	-46.1583  52.0043  	-45.7383  52.1435  	-45.6183  52.9727  	-46.0783  53.5219  	-46.4683  54.4712  	-46.7983  55.5804  	-47.2183  56.9596  	-48.0083  57.6088  	-48.0883  57.7380  	-47.2283  57.1972  	-46.8583  56.7064  	-46.8483  56.1256  	-47.0583  56.0748  	-47.4783  56.2240  	-47.9383  56.7832  	-48.4283  57.3324  	-48.5983  57.8816  	-48.2283  58.3009  	-48.0283  58.6201  	-48.1483  58.6293  	-48.2083  58.0785  	-47.8283  57.5677  	-47.6783  57.0069  	-47.7183  56.1961  	-47.8383  55.5853  	-48.1183  54.9345  	
-48.8875  66.3000  	-48.9075  65.8092  	-49.3175  65.4784  	-48.9375  65.4076  	-48.5275  64.6768  	-48.3175  64.1260  	-48.1175  63.2352  	-48.1475  62.6245  	-48.1875  61.6837  	-48.5275  61.2229  	-48.9075  60.4921  	-49.0775  59.9113  	-49.1075  59.3005  	-49.6275  58.8897  	-49.9075  58.0889  	-49.2375  57.2181  	-48.6175  56.1073  	-48.4375  55.4265  	-48.6175  54.6357  	-49.0375  54.1649  	-49.0875  53.7841  	-49.3275  53.5434  	-49.2375  53.0926  	-48.6575  52.8418  	-48.2775  52.5310  	-47.8475  52.7302  	-47.6575  52.6394  	-47.4175  52.8786  	-47.1675  53.0878  	-47.2875  53.3670  	-47.5575  53.6962  	-47.6375  54.2754  	-47.6775  54.6546  	-47.8375  55.1438  	-47.4275  55.1930  	-46.2475  54.9823  	-45.5175  54.7415  	-45.7975  54.4607  	-45.8275  54.0399  	-46.1375  53.6591  	-46.0275  52.8983  	-46.2875  52.5575  	-46.3575  51.9267  	-46.1075  51.5259  	-45.8975  51.3251  	-45.3775  51.3843  	-45.1475  51.4935  	-45.0375  52.2427  	-45.2075  52.9919  	-45.6175  53.8512  	-45.8875  55.0704  	-46.2675  56.3096  	-46.9475  56.9088  	-47.1675  57.0180  	-46.5375  56.3872  	-46.2275  55.8264  	-46.1075  55.2856  	-46.2775  55.1148  	-46.6075  55.3340  	-47.0575  56.0732  	-47.5975  56.5324  	-47.8075  57.1016  	-47.5275  57.3009  	-47.3375  57.5201  	-47.4275  57.5593  	-47.4075  57.1985  	-47.0175  56.6877  	-46.8275  56.1569  	-46.8975  55.1261  	-46.9375  54.3953  	-47.3175  53.6745  	
-47.9667  67.3500  	-47.9267  66.8992  	-48.1667  66.3484  	-47.6667  66.0776  	-47.4767  65.3068  	-47.0967  64.7260  	-47.1267  63.8952  	-47.0867  63.3745  	-47.1367  62.4737  	-47.3967  61.9529  	-47.8567  61.2521  	-47.9667  60.4913  	-47.9267  59.7105  	-48.5867  59.3497  	-48.8667  58.5389  	-48.3267  57.7681  	-47.7067  56.5973  	-47.4867  55.9765  	-47.5967  55.2457  	-47.8867  54.7549  	-48.0167  54.2741  	-48.1967  53.7634  	-48.1367  53.2526  	-47.5367  53.0018  	-47.2667  52.7110  	-46.7867  52.9302  	-46.6467  52.8394  	-46.3667  53.0086  	-46.0567  53.1478  	-46.1267  53.3770  	-46.4167  53.6962  	-46.6167  54.2254  	-46.6667  54.6446  	-46.8867  55.0938  	-46.4867  55.0030  	-45.2267  54.6723  	-44.3767  54.4615  	-44.6567  54.2607  	-44.6967  53.7299  	-44.9767  53.4091  	-44.8867  52.5783  	-45.2167  52.1675  	-45.1467  51.4567  	-44.9367  51.1059  	-44.7267  50.8351  	-44.2267  51.0043  	-43.9667  51.1435  	-43.8767  52.0127  	-44.1167  52.6319  	-44.5567  53.3312  	-44.9067  54.3304  	-45.1967  55.6596  	-45.9467  56.1988  	-46.0067  56.4980  	-45.4367  55.9372  	-44.9867  55.4164  	-44.9067  54.8256  	-45.1467  54.6648  	-45.5667  54.6840  	-46.1267  55.2332  	-46.6167  55.8224  	-46.7767  56.5116  	-46.4367  56.8109  	-46.2067  57.0801  	-46.2667  57.0993  	-46.2567  56.6285  	-45.8967  55.9177  	-45.7167  55.1869  	-45.8567  54.2261  	-45.8167  53.4753  	-46.1267  52.9245  	
-46.4759  68.3500  	-46.3759  67.7792  	-46.6559  67.2384  	-46.2659  66.8176  	-46.0659  65.9968  	-45.8459  65.3660  	-45.9159  64.6752  	-45.8359  64.1545  	-45.7359  63.2437  	-45.8759  62.8329  	-46.3759  62.1121  	-46.5159  61.2813  	-46.5659  60.3105  	-47.2459  59.8597  	-47.5659  59.0989  	-46.9859  58.2881  	-46.2759  57.1273  	-46.0959  56.5165  	-46.2059  55.6857  	-46.5259  55.1649  	-46.6759  54.5941  	-46.8059  53.9934  	-46.7059  53.4326  	-46.1059  53.1418  	-45.7859  52.8710  	-45.2959  52.9802  	-45.0859  52.9294  	-44.8359  53.0886  	-44.6159  53.2178  	-44.7359  53.4970  	-45.0959  53.8162  	-45.2059  54.2754  	-45.2059  54.6146  	-45.3459  55.0238  	-44.9759  55.0230  	-43.7359  54.8623  	-42.8959  54.6115  	-43.3059  54.2807  	-43.3559  53.6599  	-43.6259  53.3591  	-43.4859  52.4883  	-43.7459  52.1075  	-43.5959  51.4967  	-43.2959  51.1359  	-43.0759  50.7651  	-42.7859  50.9343  	-42.5959  51.0635  	-42.3659  51.6627  	-42.5159  52.3219  	-42.8959  53.3212  	-43.2859  54.3904  	-43.5759  55.6096  	-44.2959  56.1788  	-44.4959  56.3780  	-43.9559  55.7972  	-43.5259  55.2464  	-43.4359  54.6256  	-43.6659  54.3948  	-44.0859  54.5640  	-44.5359  55.1132  	-45.0959  55.7124  	-45.2459  56.2716  	-44.9659  56.5909  	-44.7259  56.7401  	-44.6759  56.6793  	-44.6159  56.5385  	-44.2759  55.8777  	-44.1459  55.2369  	-44.2659  54.2161  	-44.4559  53.5053  	-44.8659  52.6945  	
-45.4151  68.8500  	-45.2651  68.0792  	-45.6151  67.6984  	-45.2351  67.1276  	-44.9451  66.4368  	-44.8051  66.0760  	-44.7951  65.5052  	-44.5851  64.6245  	-44.6051  63.6437  	-44.7751  62.9229  	-45.2551  62.1521  	-45.5251  61.4113  	-45.5751  60.5305  	-46.1851  60.0897  	-46.4251  59.3189  	-45.7951  58.5181  	-44.9851  57.3673  	-44.7851  56.6765  	-44.9851  55.9457  	-45.4751  55.3949  	-45.6451  54.8341  	-45.7551  54.3434  	-45.6251  53.6426  	-44.8851  53.3218  	-44.4451  52.8810  	-43.9851  52.9702  	-43.9551  52.9694  	-43.8351  53.1786  	-43.6551  53.3278  	-43.7051  53.5470  	-43.9651  53.8262  	-43.9251  54.2354  	-43.9351  54.5046  	-44.1251  54.9038  	-43.7751  54.9630  	-42.6051  54.7123  	-41.7551  54.3715  	-42.2751  54.2407  	-42.2751  53.6199  	-42.5051  53.2591  	-42.2651  52.3983  	-42.4951  51.9475  	-42.3051  51.4167  	-41.9951  51.0759  	-41.8051  50.7351  	-41.6451  50.8343  	-41.4351  51.0035  	-41.2551  51.6127  	-41.3451  52.2519  	-41.5451  53.2412  	-41.9551  54.2504  	-42.3051  55.3596  	-43.0951  55.9588  	-43.3551  56.1480  	-42.7451  55.5772  	-42.2451  54.9464  	-42.2051  54.4856  	-42.3651  54.3248  	-42.9051  54.4840  	-43.3851  55.0232  	-43.9351  55.3724  	-44.0751  55.8516  	-43.7751  56.2809  	-43.5351  56.5401  	-43.3351  56.5393  	-43.4251  56.4785  	-43.1251  55.7377  	-43.0551  54.9569  	-43.1251  53.7961  	-43.1551  53.1253  	-43.4551  52.2045  	
-44.3743  69.7900  	-44.2943  68.7292  	-44.5043  68.2184  	-44.0143  67.5876  	-43.6343  66.8768  	-43.5843  66.5360  	-43.7243  66.0252  	-43.7143  65.2645  	-43.6943  64.3237  	-43.7743  63.6529  	-44.0843  62.7221  	-44.3443  62.0513  	-44.3243  61.1905  	-44.9243  60.6197  	-45.3143  59.9389  	-44.8243  59.0281  	-44.0543  57.8273  	-43.9543  57.0865  	-44.0443  56.1957  	-44.4543  55.6549  	-44.4843  55.2441  	-44.4943  54.6934  	-44.3843  54.0126  	-43.7443  53.6218  	-43.3943  53.2610  	-43.0643  53.2902  	-42.9343  53.2594  	-42.7243  53.4386  	-42.3543  53.5678  	-42.3843  53.8070  	-42.6943  53.9862  	-42.8143  54.2954  	-42.9343  54.5346  	-43.1443  54.9038  	-42.8043  54.9830  	-41.3843  54.6623  	-40.4943  54.4515  	-40.9043  54.2807  	-40.9743  53.6999  	-41.3843  53.0491  	-41.2443  52.1883  	-41.5043  51.6875  	-41.3343  51.1967  	-40.8643  51.0059  	-40.5843  50.6951  	-40.4543  50.7943  	-40.2743  50.8635  	-40.1243  51.4327  	-40.4043  52.1819  	-40.6043  53.0512  	-40.7943  54.0704  	-41.1443  55.1696  	-41.8243  55.7388  	-42.0043  55.9580  	-41.5243  55.3872  	-41.0443  54.8364  	-41.0943  54.2356  	-41.3843  54.1248  	-41.8943  54.2140  	-42.3943  54.7432  	-42.8443  55.3324  	-42.8643  56.0416  	-42.5643  56.3109  	-42.2643  56.4401  	-42.2043  56.4593  	-42.3943  55.9785  	-42.0743  55.2677  	-42.0143  54.6769  	-42.0743  53.6161  	-42.0843  52.7553  	-42.2943  51.8645  	
-43.7035  70.0100  	-43.5835  69.1192  	-43.8235  68.5184  	-43.0435  67.9676  	-42.6235  67.1868  	-42.6335  66.6860  	-42.9835  66.1552  	-42.9535  65.3145  	-42.9835  64.4437  	-43.0835  63.8429  	-43.4335  62.8221  	-43.4935  62.1913  	-43.5235  61.2505  	-44.1635  60.7497  	-44.4935  59.9789  	-44.0935  59.1581  	-43.3735  57.9373  	-43.2535  57.3165  	-43.3835  56.4557  	-43.7735  55.8749  	-43.8635  55.2341  	-43.8835  54.5734  	-43.6335  53.8626  	-42.9535  53.4318  	-42.6635  52.9510  	-42.2635  53.2002  	-42.2635  53.2894  	-42.0935  53.4986  	-41.7235  53.4778  	-41.7135  53.6270  	-42.0235  53.8662  	-42.0335  54.1454  	-42.0535  54.3846  	-42.2935  54.7338  	-42.0035  54.8630  	-40.6235  54.7823  	-39.7335  54.4815  	-40.2035  54.2707  	-40.3235  53.5499  	-40.7335  53.0491  	-40.4335  52.0283  	-40.5835  51.5475  	-40.3735  51.0567  	-39.9335  50.8159  	-39.6535  50.5751  	-39.5835  50.6743  	-39.5335  50.8435  	-39.3735  51.4627  	-39.5735  52.0119  	-39.6635  52.9612  	-39.7135  54.1204  	-40.0435  55.1396  	-40.8235  55.6488  	-41.0935  55.7980  	-40.6235  55.2872  	-40.2335  54.8264  	-40.3235  54.2856  	-40.6035  54.0448  	-41.0235  54.1440  	-41.4435  54.5432  	-41.9035  55.0424  	-41.9635  55.7016  	-41.5535  55.8409  	-41.3535  56.1301  	-41.3335  56.3293  	-41.4535  56.0285  	-41.2335  55.3377  	-41.1335  54.3869  	-41.1635  53.0961  	-41.2235  52.4653  	-41.3935  51.8945  	
-42.9827  70.2400  	-42.8027  69.3692  	-42.9827  68.7284  	-42.4327  68.2776  	-41.8827  67.3668  	-41.8627  66.7860  	-42.1627  66.2252  	-42.2627  65.4545  	-42.2927  64.7637  	-42.4327  64.0229  	-42.7327  63.0121  	-42.8727  62.3213  	-42.8527  61.4305  	-43.4227  60.6997  	-43.6727  59.8589  	-43.2927  59.0781  	-42.6327  57.8773  	-42.6027  57.2065  	-42.6527  56.6657  	-43.0427  56.0049  	-42.9727  55.3441  	-42.9527  54.5134  	-42.7627  53.7326  	-42.0227  53.3318  	-41.6727  52.9110  	-41.2927  53.0902  	-41.3627  53.2294  	-41.3127  53.4286  	-41.0127  53.4478  	-41.0127  53.5370  	-41.1627  53.6662  	-41.0527  53.8454  	-41.0927  54.1646  	-41.3927  54.5938  	-41.0427  54.7730  	-39.7627  54.6723  	-38.9927  54.4015  	-39.5127  54.1407  	-39.5427  53.4299  	-39.7927  52.8291  	-39.4727  51.8883  	-39.6027  51.3975  	-39.4427  50.9067  	-38.9427  50.6159  	-38.6727  50.4551  	-38.7627  50.7143  	-38.7527  50.7335  	-38.5927  51.3627  	-38.7627  51.9219  	-38.7727  52.7912  	-38.7227  53.8604  	-38.9627  54.9396  	-39.7727  55.5288  	-40.0827  55.7380  	-39.7427  55.3572  	-39.3827  54.8264  	-39.4627  54.0556  	-39.8027  53.8848  	-40.2427  53.8840  	-40.5727  54.3332  	-40.9627  55.0624  	-40.9327  55.8016  	-40.6627  56.1009  	-40.3727  56.1201  	-40.4827  56.0493  	-40.6727  55.6685  	-40.3627  54.9077  	-40.2227  54.2869  	-40.2627  53.2561  	-40.2827  52.6553  	-40.4227  51.9245  	
-41.8619  70.3600  	-41.5519  69.1492  	-41.6319  68.3184  	-41.0819  67.8676  	-40.5519  67.1668  	-40.5419  66.7260  	-40.8919  66.3452  	-41.1419  65.6245  	-41.2019  64.7437  	-41.2619  63.9629  	-41.4919  62.8521  	-41.5119  61.9413  	-41.5019  61.0305  	-42.2119  60.4497  	-42.5619  59.7589  	-42.2519  59.0081  	-41.5019  57.8873  	-41.3619  57.2765  	-41.4319  56.4457  	-41.7319  55.7749  	-41.6419  54.9941  	-41.6719  54.3634  	-41.5519  53.6026  	-40.8119  53.2118  	-40.4619  52.9510  	-40.0519  53.1102  	-40.2019  53.2194  	-40.0619  53.2686  	-39.6219  53.2478  	-39.6619  53.4670  	-39.8019  53.6462  	-39.6819  53.8454  	-39.7219  54.1646  	-39.9519  54.6438  	-39.5519  54.7530  	-38.4019  54.5923  	-37.5619  54.2315  	-38.1919  53.9707  	-38.2619  53.2599  	-38.5519  52.6791  	-38.1219  51.6783  	-38.2219  51.2875  	-37.9619  50.9067  	-37.4219  50.7159  	-37.1919  50.5851  	-37.3319  50.7543  	-37.3619  50.8135  	-37.2619  51.3027  	-37.4219  51.9319  	-37.4819  52.7912  	-37.3519  53.8404  	-37.3719  55.1396  	-38.2219  55.5088  	-38.5419  55.6080  	-38.3319  55.2972  	-37.9919  54.8064  	-38.0919  54.2856  	-38.5119  54.1148  	-38.9219  54.1040  	-39.2319  54.6232  	-39.5419  55.1524  	-39.4419  55.7216  	-39.1219  55.8409  	-38.9819  56.0901  	-39.0619  56.1293  	-39.2219  55.8485  	-38.9819  55.1477  	-38.8819  54.6369  	-38.9419  53.6761  	-38.9619  52.8353  	-39.0319  51.9845  	
-40.6712  70.6800  	-40.4812  69.5892  	-40.6012  68.6884  	-40.0612  68.4876  	-39.5012  67.6668  	-39.3412  66.9760  	-39.6912  66.5352  	-39.8312  66.0645  	-40.0312  65.1237  	-40.1012  64.3929  	-40.3012  63.2921  	-40.3712  62.3413  	-40.2712  61.2905  	-40.9912  60.7697  	-41.2512  59.9689  	-41.0512  59.3181  	-40.3712  58.1473  	-40.4312  57.5365  	-40.6512  56.6957  	-40.7312  55.9549  	-40.5812  55.1541  	-40.4512  54.5634  	-40.2612  53.7226  	-39.3912  53.3218  	-39.1012  53.0410  	-38.8312  53.1802  	-39.1112  53.3494  	-39.0812  53.4886  	-38.6212  53.5278  	-38.5512  53.5370  	-38.5312  53.6862  	-38.3912  53.8654  	-38.3612  54.2546  	-38.7112  54.6938  	-38.4612  54.7330  	-37.3912  54.7123  	-36.5012  54.3715  	-37.0312  54.1607  	-36.9912  53.4199  	-37.1812  52.7891  	-36.7612  51.8383  	-36.9412  51.3375  	-36.7612  50.7967  	-36.2312  50.6959  	-36.0912  50.6251  	-36.1012  50.9743  	-35.9412  51.0135  	-35.8912  51.4927  	-36.0512  52.0719  	-36.0812  52.9012  	-36.0512  53.9104  	-36.1412  55.1496  	-36.9112  55.6988  	-37.3512  55.8780  	-37.1312  55.5272  	-36.6712  55.0364  	-36.7212  54.4056  	-37.1512  54.3848  	-37.6512  54.3440  	-38.0212  54.7232  	-38.3312  55.2024  	-38.3412  55.9216  	-37.9112  56.3009  	-37.7112  56.6101  	-37.6412  56.4293  	-37.9212  56.1285  	-37.7212  55.3577  	-37.6412  54.5969  	-37.7412  53.7861  	-37.8012  53.1053  	-37.7512  52.2645  	
-39.3104  70.8700  	-39.1004  69.6492  	-39.2804  68.6584  	-38.8604  68.1976  	-38.2704  67.6768  	-38.1604  67.2260  	-38.4704  66.8452  	-38.5904  66.1045  	-38.8504  65.1837  	-38.8404  64.2829  	-39.0104  63.1621  	-39.0004  62.2013  	-38.8704  61.3005  	-39.6704  60.8797  	-40.0404  60.0989  	-39.7604  59.4381  	-39.0704  58.1973  	-39.1004  57.5465  	-39.2704  56.6457  	-39.4404  55.8149  	-39.1804  55.1141  	-39.0604  54.6734  	-38.8104  53.8326  	-38.1904  53.4818  	-37.8904  53.0810  	-37.5304  53.1202  	-37.6804  53.1494  	-37.6604  53.2286  	-37.3404  53.3478  	-37.2404  53.4170  	-37.1604  53.4862  	-37.0304  53.8454  	-37.0704  54.1446  	-37.3804  54.5038  	-37.1404  54.5130  	-36.0704  54.4223  	-35.1504  54.1715  	-35.6804  54.0907  	-35.7204  53.3999  	-35.8804  52.8291  	-35.4204  51.7583  	-35.5704  51.1975  	-35.3304  50.6767  	-34.8204  50.5059  	-34.5304  50.4751  	-34.5604  50.8943  	-34.5704  50.9935  	-34.6104  51.5627  	-34.8704  52.0319  	-34.7604  52.8812  	-34.6604  53.8704  	-34.7004  55.0996  	-35.3404  55.7988  	-35.8004  55.8680  	-35.7004  55.5472  	-35.2404  54.8064  	-35.4804  54.2556  	-35.9504  54.1048  	-36.3804  54.2240  	-36.6604  54.7232  	-36.8904  55.2724  	-36.8604  56.1416  	-36.4404  56.4309  	-36.3404  56.5201  	-36.3004  56.2893  	-36.6804  56.0785  	-36.4604  55.4577  	-36.3604  54.8469  	-36.3504  53.9261  	-36.3004  53.2353  	-36.2504  51.9445  	
-37.9696  71.1800  	-37.6496  70.0892  	-37.8696  69.4084  	-37.4996  68.9376  	-36.8396  68.2368  	-36.6796  67.8360  	-36.9896  67.2152  	-37.1896  66.5145  	-37.4296  65.5937  	-37.4496  64.7529  	-37.5696  63.7221  	-37.6696  62.8213  	-37.6196  61.8005  	-38.2996  61.2997  	-38.7096  60.5189  	-38.4096  59.8881  	-37.7296  58.5873  	-37.7696  57.9365  	-37.8396  57.1257  	-37.9496  56.3049  	-37.7696  55.6141  	-37.5296  54.9834  	-37.3696  54.0726  	-36.6996  53.5118  	-36.4396  53.2410  	-36.1396  53.3602  	-36.3296  53.4794  	-36.3396  53.6486  	-35.8696  53.6778  	-35.6196  53.7270  	-35.5996  53.6762  	-35.5396  53.8754  	-35.5096  54.1146  	-35.7696  54.6438  	-35.6096  54.7830  	-34.6296  54.7123  	-33.6196  54.2215  	-34.1596  54.1907  	-34.1796  53.5999  	-34.3796  53.0491  	-33.9096  52.0283  	-34.0196  51.3975  	-33.8296  50.8167  	-33.3496  50.5959  	-33.1096  50.5551  	-33.0996  51.0043  	-32.9996  51.2535  	-33.0496  51.8027  	-33.2896  52.2019  	-33.1896  53.0012  	-33.1096  53.9904  	-33.1696  55.1696  	-33.8196  55.8688  	-34.1696  56.0580  	-34.1196  55.7172  	-33.7696  55.3564  	-33.9596  54.9056  	-34.3696  54.6748  	-34.8196  54.6540  	-35.1196  54.9632  	-35.3796  55.2824  	-35.3096  56.1816  	-34.9296  56.5609  	-34.8896  56.8901  	-34.7396  56.7493  	-35.0196  56.6885  	-34.8096  56.0977  	-34.7796  55.0769  	-34.8796  53.9461  	-34.8696  53.1053  	-34.7996  52.3345  	
-36.9188  71.6700  	-36.7388  70.8092  	-36.9788  69.9584  	-36.6588  69.3176  	-35.9188  68.4168  	-35.8588  67.8160  	-36.0688  67.3652  	-36.1188  66.6345  	-36.3988  65.7937  	-36.4588  65.1429  	-36.5988  64.0521  	-36.7288  63.1313  	-36.6788  62.0305  	-37.3088  61.4397  	-37.7988  60.6589  	-37.5488  59.9281  	-36.8688  58.7273  	-36.9388  58.1065  	-37.0888  57.2457  	-37.1288  56.4949  	-36.8688  55.6841  	-36.6488  54.9134  	-36.5288  54.1126  	-35.8088  53.6118  	-35.4988  53.3410  	-35.1788  53.4702  	-35.3888  53.6694  	-35.3788  53.7586  	-34.9788  53.6978  	-34.7888  53.6670  	-34.6788  53.6262  	-34.6888  53.8554  	-34.5188  54.0546  	-34.8288  54.6038  	-34.7588  54.7830  	-33.7488  54.7323  	-32.6888  54.2915  	-33.1988  54.1607  	-33.2288  53.6699  	-33.4688  53.0091  	-33.0388  51.8583  	-33.0688  51.1875  	-32.8588  50.5967  	-32.3688  50.5059  	-32.1088  50.5651  	-32.1788  51.1143  	-32.0388  51.4035  	-32.1188  51.8727  	-32.3688  52.3419  	-32.2088  52.9112  	-32.0488  53.8504  	-32.0788  54.9796  	-32.7688  55.7688  	-33.0288  56.1880  	-33.1588  55.7572  	-32.7288  55.2864  	-32.9688  54.6456  	-33.4088  54.4048  	-33.8388  54.4040  	-34.1288  54.8732  	-34.3388  55.2024  	-34.2188  56.3616  	-33.8488  56.6709  	-33.8088  56.9501  	-33.7388  56.8493  	-34.0388  56.4185  	-33.8288  55.8877  	-33.7688  55.0469  	-33.8388  53.9661  	-33.8088  53.2953  	-33.7588  52.4245  	
-34.9880  71.7300  	-34.8180  70.6092  	-35.0680  69.7684  	-34.8880  69.4176  	-34.1180  68.6168  	-34.0980  67.9960  	-34.4080  67.4752  	-34.2380  66.6945  	-34.4280  65.8337  	-34.4780  65.0529  	-34.6380  63.8521  	-34.7780  62.9013  	-34.8580  61.9005  	-35.5880  61.2697  	-35.8880  60.4689  	-35.6680  59.8981  	-34.8280  58.6773  	-34.8380  58.0165  	-34.9880  57.0457  	-35.2080  56.1949  	-35.0380  55.3641  	-34.8380  54.5334  	-34.6580  53.8426  	-33.9680  53.4318  	-33.5980  53.1310  	-33.1480  53.1902  	-33.3380  53.3594  	-33.3080  53.3986  	-33.0380  53.2878  	-32.9580  53.2670  	-32.8380  53.3062  	-32.7680  53.5954  	-32.4580  53.7746  	-32.7680  54.3938  	-32.6580  54.5430  	-31.6780  54.4523  	-30.7280  53.9015  	-31.3480  53.6707  	-31.4680  53.3199  	-31.5480  52.6591  	-31.0280  51.5983  	-30.9080  50.8975  	-30.7380  50.3267  	-30.2780  50.2159  	-30.0480  50.2351  	-30.2380  50.7143  	-30.1180  50.9035  	-30.0680  51.4927  	-30.2180  51.9819  	-30.1480  52.6612  	-29.9180  53.6404  	-29.9380  54.8696  	-30.6780  55.5288  	-30.9680  55.8580  	-31.0480  55.4672  	-30.8080  54.8364  	-31.0180  54.3256  	-31.5180  54.1548  	-31.8480  54.1640  	-32.0280  54.6832  	-32.2680  55.0224  	-32.2280  55.9316  	-31.9280  56.3409  	-31.9180  56.7101  	-31.6880  56.3493  	-32.0180  56.2185  	-31.8080  55.6677  	-31.7980  54.8769  	-31.8380  53.5861  	-31.7580  52.9053  	-31.7480  52.0645  	
-35.1772  71.9200  	-35.1072  70.8892  	-35.4172  69.9984  	-35.2572  69.2676  	-34.4672  68.4868  	-34.4272  68.1660  	-34.6972  67.6752  	-34.5272  66.7645  	-34.6772  65.8137  	-34.7172  65.0329  	-35.0672  63.9321  	-35.1772  62.8313  	-35.1572  61.7905  	-35.8672  61.3097  	-36.1572  60.4589  	-36.0372  60.0281  	-35.2772  58.7673  	-35.3172  58.0165  	-35.4072  56.9957  	-35.5172  56.0849  	-35.3472  55.2641  	-35.0572  54.4734  	-34.9472  53.8426  	-34.2072  53.4018  	-33.9072  53.1310  	-33.4872  53.1702  	-33.7272  53.1794  	-33.6772  53.1486  	-33.2772  53.0678  	-33.1372  53.0870  	-32.9872  53.2662  	-32.9072  53.5254  	-32.6772  53.6046  	-33.1672  54.2038  	-33.0472  54.3130  	-32.0672  54.2723  	-31.0272  53.6915  	-31.5972  53.5507  	-31.5572  53.0499  	-31.6472  52.5591  	-31.2472  51.4383  	-31.2272  50.7275  	-31.1472  50.0767  	-30.6172  49.9259  	-30.2972  49.9851  	-30.4172  50.5943  	-30.2972  50.9135  	-30.1972  51.5427  	-30.3972  51.9019  	-30.4172  52.5312  	-30.2872  53.2804  	-30.2372  54.4296  	-30.9172  55.1888  	-31.1372  55.5580  	-31.1372  55.4572  	-30.8472  54.8064  	-31.1572  54.3056  	-31.7772  54.0848  	-32.2472  54.0140  	-32.4672  54.3732  	-32.5472  54.8424  	-32.4472  55.7116  	-32.0272  56.2709  	-31.9972  56.6801  	-31.8572  56.3993  	-32.2872  56.0885  	-32.1572  55.2777  	-32.1472  54.3769  	-32.1572  53.3561  	-32.0172  52.7053  	-31.8472  52.1645  	
-33.9364  71.6700  	-33.9164  70.5692  	-34.2264  69.6684  	-34.0064  69.2076  	-33.2064  68.6068  	-33.1464  68.1460  	-33.5364  67.6452  	-33.3664  66.6145  	-33.4264  65.4637  	-33.3964  64.7229  	-33.8464  63.7321  	-33.9864  62.7813  	-33.9764  61.7005  	-34.6164  61.0497  	-35.0064  60.2989  	-34.8664  59.7281  	-34.2264  58.4373  	-34.2364  57.7065  	-34.1864  56.7057  	-34.2564  55.8949  	-34.0164  54.9041  	-33.8064  54.1534  	-33.7464  53.4326  	-33.1064  52.9418  	-32.7864  52.6410  	-32.3964  52.6902  	-32.6164  52.8194  	-32.4364  52.8886  	-32.0064  52.8178  	-31.8464  52.8470  	-31.8164  52.8562  	-31.7164  53.0854  	-31.4564  53.1446  	-31.8564  53.7138  	-31.7464  53.8930  	-30.7664  53.8723  	-29.6864  53.4115  	-30.3364  53.1707  	-30.2864  52.6399  	-30.4064  52.0391  	-30.0364  51.0183  	-29.9664  50.3275  	-29.7664  49.7767  	-29.2164  49.6159  	-29.0164  49.6051  	-29.1564  50.1643  	-29.0764  50.4035  	-28.9564  51.0327  	-29.0164  51.4919  	-29.0464  52.2312  	-28.9064  52.9204  	-28.8364  54.2596  	-29.4764  54.9188  	-29.7764  55.1880  	-29.8464  54.9772  	-29.6364  54.4464  	-30.0364  53.8956  	-30.5664  53.8348  	-30.9564  53.8740  	-31.1364  54.3232  	-31.1564  54.7124  	-31.0164  55.3216  	-30.7564  55.7209  	-30.8464  55.8901  	-30.7464  55.7593  	-31.1464  55.8485  	-30.9364  55.2577  	-30.8564  54.5669  	-30.7964  53.4761  	-30.6164  52.6253  	-30.5664  51.5445  	
-32.8756  71.8100  	-32.8356  70.9992  	-33.0856  70.3884  	-32.9056  69.9776  	-32.1456  69.1868  	-32.1856  68.6260  	-32.5956  67.9452  	-32.3756  66.9945  	-32.2456  65.8037  	-32.1956  64.9029  	-32.5356  64.0421  	-32.7756  63.1513  	-32.8656  62.0705  	-33.5756  61.4797  	-34.0156  60.5889  	-33.8456  59.9781  	-33.2456  58.6573  	-33.1456  57.9565  	-33.1356  56.9357  	-33.0756  56.2149  	-32.7956  55.3141  	-32.6856  54.5734  	-32.6256  53.8526  	-32.0356  53.3718  	-31.6656  52.9710  	-31.2256  52.9902  	-31.3356  53.0694  	-31.1856  53.0286  	-30.7456  52.8778  	-30.6656  52.9170  	-30.5856  52.9362  	-30.4556  53.0954  	-30.2756  53.1746  	-30.6056  53.7938  	-30.5756  54.0430  	-29.6556  54.0323  	-28.6056  53.5215  	-29.1556  53.2407  	-29.1456  52.6999  	-29.1956  52.1691  	-28.7756  51.1383  	-28.8256  50.5175  	-28.5856  49.8467  	-28.0956  49.5959  	-27.8756  49.5451  	-28.0256  50.0543  	-27.8856  50.3235  	-27.7656  50.9727  	-27.7256  51.6019  	-27.7556  52.4712  	-27.6756  53.2604  	-27.6456  54.3496  	-28.2156  54.8088  	-28.5556  55.0780  	-28.7156  54.9672  	-28.3456  54.6864  	-28.8156  54.0856  	-29.3356  53.8748  	-29.7356  53.8440  	-29.8756  54.3332  	-29.9756  54.6724  	-29.9156  55.2916  	-29.5956  55.8309  	-29.5756  55.9601  	-29.5156  56.1793  	-29.7956  55.9685  	-29.7056  55.3577  	-29.6556  54.6069  	-29.6356  53.3261  	-29.4256  52.5753  	-29.2256  51.6545  	
-31.5648  71.8000  	-31.5248  71.1792  	-31.7548  70.2584  	-31.5948  69.7876  	-30.8448  68.8168  	-30.8648  68.2260  	-31.2448  67.7752  	-31.1148  66.7845  	-31.0548  65.6837  	-30.8248  64.8829  	-31.0848  63.8821  	-31.3148  63.0313  	-31.3548  61.8705  	-32.1748  61.2597  	-32.6548  60.2389  	-32.5648  59.7181  	-31.9048  58.4873  	-31.8248  57.8465  	-31.7948  56.7857  	-31.6748  55.7449  	-31.3648  54.8841  	-31.2248  54.1534  	-31.2348  53.4226  	-30.6348  53.0418  	-30.3148  52.6410  	-29.9248  52.8202  	-30.1048  52.9694  	-29.8648  52.9186  	-29.3148  52.6778  	-29.2348  52.6470  	-29.0348  52.6562  	-28.9848  52.8554  	-28.8848  53.0146  	-29.2548  53.5738  	-29.3148  53.8730  	-28.4448  53.8823  	-27.2648  53.2815  	-27.5648  52.8007  	-27.6048  52.2899  	-27.6748  51.7891  	-27.3148  50.9183  	-27.4348  50.2775  	-27.2548  49.6267  	-26.7048  49.4059  	-26.4848  49.3751  	-26.6948  49.9143  	-26.5248  50.2935  	-26.2648  50.8327  	-26.2048  51.3619  	-26.1548  52.1212  	-26.0448  53.0604  	-26.1848  54.1296  	-26.8248  54.6688  	-27.1148  54.9680  	-27.2748  54.8872  	-26.8548  54.5464  	-27.3048  53.9556  	-27.8648  53.7348  	-28.1648  53.7940  	-28.3448  54.3332  	-28.5148  54.7924  	-28.5048  55.3516  	-28.1348  55.6609  	-28.0548  55.8201  	-28.0148  55.7793  	-28.4648  55.8785  	-28.3248  55.4777  	-28.1448  54.7069  	-28.1348  53.4761  	-27.9548  52.6853  	-27.7848  51.6045  	
-30.5340  71.7400  	-30.5740  70.8592  	-30.8740  69.9884  	-30.7540  69.4876  	-30.0740  68.6968  	-30.0340  68.3460  	-30.3340  67.9052  	-30.0840  66.8745  	-30.0240  65.5237  	-29.7840  64.5629  	-30.0840  63.4921  	-30.4340  62.7113  	-30.5140  61.6005  	-31.3440  61.0097  	-31.7940  60.2989  	-31.6440  59.7081  	-30.8340  58.3773  	-30.8440  57.5465  	-30.7340  56.4557  	-30.6840  55.5049  	-30.3940  54.6541  	-30.3040  54.0334  	-30.1940  53.4026  	-29.6140  53.0018  	-29.2840  52.6110  	-28.9040  52.6902  	-29.1540  52.8194  	-28.8140  52.6286  	-28.3140  52.3578  	-28.1540  52.4070  	-27.9740  52.4062  	-27.8740  52.7154  	-27.7940  52.8646  	-28.1340  53.4138  	-28.0940  53.7330  	-27.3940  53.7423  	-26.1640  53.1115  	-26.5640  52.6107  	-26.5040  52.0999  	-26.5740  51.5891  	-26.2940  50.7083  	-26.3840  50.1775  	-26.1840  49.5067  	-25.5840  49.1459  	-25.3640  49.0051  	-25.5840  49.6343  	-25.3640  49.9835  	-25.1240  50.6827  	-25.0140  51.2619  	-24.9040  52.1112  	-24.8940  53.1004  	-25.1040  54.1296  	-25.8140  54.5588  	-26.0840  54.7880  	-26.2540  54.6472  	-25.8240  54.3564  	-26.2040  54.0656  	-26.7440  53.7548  	-27.0740  53.9040  	-27.1940  54.3532  	-27.3940  54.5924  	-27.4240  55.1816  	-27.0440  55.6109  	-27.0140  55.8101  	-26.9040  55.7593  	-27.3740  56.0385  	-27.2540  55.6277  	-27.0440  54.8269  	-27.0940  53.4561  	-26.8840  52.6253  	-26.6740  51.5645  	
-28.1432  72.1400  	-28.2132  71.4392  	-28.4432  70.7284  	-28.3232  70.3976  	-27.5932  69.4968  	-27.5532  68.9160  	-27.9732  68.3352  	-27.6832  67.2845  	-27.6332  66.0737  	-27.4232  65.0529  	-27.6532  63.9321  	-27.9432  63.1313  	-28.1032  62.2305  	-29.0132  61.7397  	-29.4132  60.7489  	-29.3732  60.1181  	-28.5332  58.7373  	-28.4632  57.8165  	-28.4132  56.6457  	-28.3332  55.6949  	-27.9132  55.0041  	-27.9032  54.3534  	-27.8332  53.6426  	-27.3132  53.2218  	-27.0132  52.6810  	-26.6232  52.7502  	-26.8132  52.8594  	-26.4132  52.8286  	-25.8232  52.5578  	-25.6032  52.6670  	-25.3832  52.5862  	-25.4932  52.9154  	-25.4132  53.0446  	-25.7232  53.5138  	-25.5832  53.8330  	-24.8432  53.9523  	-23.7132  53.3715  	-24.0432  52.9207  	-23.9732  52.3299  	-24.0532  51.6891  	-23.8832  50.7883  	-23.9332  50.1775  	-23.5932  49.4567  	-23.0032  49.1959  	-22.8232  49.1751  	-23.1532  49.8143  	-22.9732  50.1835  	-22.7532  50.8227  	-22.6632  51.3319  	-22.4332  52.2212  	-22.2332  53.1404  	-22.3932  54.2696  	-23.1332  54.6288  	-23.3932  54.9680  	-23.6832  54.8672  	-23.3932  54.5864  	-23.7632  54.2356  	-24.3632  53.8948  	-24.6632  53.9040  	-24.7532  54.2132  	-24.7632  54.5524  	-24.7932  55.2316  	-24.4432  55.8709  	-24.5732  56.0801  	-24.5532  55.9393  	-25.0532  55.7785  	-24.8732  55.3377  	-24.6132  54.6469  	-24.5832  53.4861  	-24.1732  52.7453  	-24.0932  52.0145  	
-28.2924  72.7800  	-28.2424  71.9192  	-28.3724  70.9684  	-28.1324  70.6876  	-27.5524  69.7368  	-27.6124  69.2260  	-28.0824  68.6152  	-27.8724  67.5645  	-27.6924  66.4037  	-27.4124  65.2929  	-27.6024  64.0721  	-27.8724  63.2013  	-28.1924  62.4105  	-29.1124  61.8797  	-29.6724  60.8889  	-29.6024  60.2581  	-28.7724  58.8573  	-28.4524  57.9365  	-28.3424  56.9157  	-28.2024  55.9349  	-27.9724  55.1241  	-27.9124  54.5034  	-27.9024  53.7426  	-27.4324  53.3718  	-27.0624  52.8910  	-26.6124  52.8602  	-26.7024  52.9594  	-26.3124  52.8786  	-25.8524  52.7278  	-25.7024  52.5870  	-25.5424  52.5462  	-25.6124  52.9354  	-25.4524  53.0646  	-25.6324  53.4538  	-25.5024  53.6530  	-24.8724  53.8523  	-23.7724  53.3715  	-24.1124  52.8907  	-23.9724  52.1599  	-24.0524  51.6391  	-23.8524  50.7883  	-23.7924  50.1575  	-23.5124  49.4867  	-22.9524  49.2759  	-22.7624  49.2351  	-23.1224  49.7743  	-23.0624  50.1535  	-22.7524  50.7727  	-22.5124  51.1219  	-22.2524  51.9812  	-21.9824  52.9804  	-22.1624  54.2496  	-22.9824  54.7488  	-23.4124  54.9080  	-23.7424  54.7172  	-23.4524  54.3964  	-23.7324  54.0456  	-24.1324  53.8048  	-24.3424  53.6440  	-24.5224  54.1932  	-24.6424  54.6624  	-24.7824  55.3616  	-24.4624  55.7209  	-24.5524  55.9601  	-24.4524  55.7993  	-24.9624  55.7185  	-24.6724  55.2877  	-24.3624  54.5969  	-24.3324  53.3561  	-24.0424  52.6453  	-24.0824  51.8545  	
-26.6716  73.5100  	-26.7216  72.7692  	-26.9016  71.7784  	-26.6516  71.2176  	-26.0116  70.2968  	-25.9816  69.7860  	-26.3516  69.2252  	-26.2016  68.1445  	-26.1316  66.9937  	-25.9516  65.9729  	-26.0916  64.8421  	-26.3316  63.8813  	-26.4616  62.7905  	-27.4116  62.2297  	-27.9616  61.3989  	-27.9016  60.8081  	-26.9916  59.4173  	-26.7916  58.3765  	-26.6816  57.2157  	-26.7016  56.2949  	-26.3716  55.4541  	-26.2416  54.6834  	-26.0916  53.9526  	-25.6116  53.6418  	-25.3016  53.2010  	-24.9516  53.1702  	-25.1616  53.1394  	-24.8416  53.0386  	-24.2116  52.9478  	-23.8716  52.7570  	-23.6116  52.6962  	-23.6416  53.0254  	-23.6016  53.1446  	-24.0416  53.5538  	-23.9816  53.8830  	-23.3616  54.0523  	-22.1816  53.4915  	-22.3616  52.9007  	-22.1316  52.0899  	-22.1716  51.5591  	-21.9416  50.6683  	-21.9916  50.0175  	-21.8416  49.4267  	-21.4216  49.2559  	-21.2416  49.1551  	-21.5316  49.7843  	-21.2816  50.0235  	-20.8416  50.5427  	-20.6816  51.1119  	-20.4316  51.9312  	-20.2516  52.8804  	-20.4516  54.0296  	-21.3216  54.6188  	-21.8316  54.8380  	-22.0316  54.6372  	-21.5316  54.1764  	-21.6816  53.7556  	-22.1116  53.6348  	-22.5916  53.5040  	-22.8316  53.9632  	-23.0316  54.4024  	-23.1716  55.0916  	-22.8616  55.6409  	-22.8216  55.8401  	-22.6316  55.5693  	-22.9616  55.3485  	-22.7916  54.8177  	-22.6116  54.1869  	-22.6816  52.9861  	-22.3616  52.3553  	-22.3416  51.4645  	
-24.7609  73.7200  	-24.8609  73.0292  	-24.9309  71.9084  	-24.7109  71.2176  	-24.1009  70.2868  	-23.9809  69.9760  	-24.3809  69.5852  	-24.2409  68.4245  	-24.2009  67.1537  	-24.0309  66.1229  	-24.1709  64.8121  	-24.3009  63.7313  	-24.4609  62.7905  	-25.4409  62.2497  	-26.0609  61.4689  	-26.0709  60.7981  	-25.1909  59.3173  	-24.9609  58.2765  	-24.6509  57.0357  	-24.6109  56.2449  	-24.2709  55.3741  	-24.1709  54.6534  	-24.1009  53.9026  	-23.6609  53.6318  	-23.4709  53.1610  	-23.0009  53.0302  	-23.1309  52.9794  	-22.7709  52.7886  	-22.2109  52.5378  	-21.7909  52.3870  	-21.6009  52.2962  	-21.6309  52.5854  	-21.5309  52.7946  	-22.0309  53.2838  	-21.9409  53.4930  	-21.3309  53.6823  	-20.0509  53.1015  	-20.2109  52.4707  	-20.0709  51.6699  	-20.1709  51.0991  	-20.0709  50.2283  	-20.0309  49.5875  	-19.8609  49.0467  	-19.3409  48.9559  	-19.1609  48.7751  	-19.2309  49.2243  	-18.9809  49.3735  	-18.7309  49.8427  	-18.5409  50.4119  	-18.3709  51.5112  	-18.1309  52.5804  	-18.2209  53.8696  	-19.1309  54.3388  	-19.8009  54.3680  	-20.0809  54.1172  	-19.5309  53.5964  	-19.7009  53.0856  	-20.1209  53.0348  	-20.4109  53.0240  	-20.6209  53.3432  	-20.8709  53.9024  	-21.0609  54.5616  	-20.7809  54.9409  	-20.8409  55.1801  	-20.6709  54.8293  	-20.9909  54.8285  	-20.7409  54.4177  	-20.4809  53.7569  	-20.4509  52.5061  	-20.1709  51.8253  	-20.2809  50.5945  	
-23.4701  73.8400  	-23.5401  73.1292  	-23.7301  72.2584  	-23.4201  71.7876  	-22.6701  71.0368  	-22.6901  70.5160  	-23.0201  69.7952  	-22.8801  68.5945  	-22.8301  67.2337  	-22.6701  66.1229  	-22.8301  64.8821  	-23.0701  63.8913  	-23.3101  62.9905  	-24.3601  62.4297  	-24.8701  61.6089  	-24.7701  60.8181  	-23.8701  59.3373  	-23.5301  58.2765  	-23.2401  56.9757  	-23.3001  56.1049  	-23.1401  55.2841  	-23.0501  54.6234  	-22.8801  53.8326  	-22.4301  53.4818  	-22.1501  52.9210  	-21.6201  52.7002  	-21.7301  52.5494  	-21.4401  52.4886  	-20.8301  52.2978  	-20.4601  52.1870  	-20.2801  52.1362  	-20.3301  52.4054  	-20.2501  52.4446  	-20.6701  53.0138  	-20.5201  53.1830  	-19.8601  53.2623  	-18.7001  52.6715  	-18.8301  52.0507  	-18.6701  51.2699  	-18.7801  50.7791  	-18.6101  49.8683  	-18.6501  49.1975  	-18.4401  48.6167  	-17.9601  48.3859  	-17.7301  48.1151  	-17.9001  48.6643  	-17.5901  48.7335  	-17.3301  49.2727  	-17.1301  49.8919  	-16.8801  50.9012  	-16.6801  51.8904  	-16.8401  53.2296  	-17.6901  53.6288  	-18.2501  53.6980  	-18.5401  53.1572  	-18.0001  52.6564  	-18.2001  52.4656  	-18.5101  52.5248  	-18.8301  52.7240  	-19.2301  52.8732  	-19.5701  53.2424  	-19.7001  53.8116  	-19.3801  54.1909  	-19.4301  54.3301  	-19.2401  53.9993  	-19.5301  54.0485  	-19.1901  53.5377  	-18.9001  52.7669  	-18.8601  51.5161  	-18.6601  50.8253  	-18.7901  49.9045  	
-22.8393  74.2100  	-23.0293  73.6092  	-23.1793  72.6084  	-22.7093  71.9276  	-22.0193  70.9368  	-21.9293  70.3460  	-22.3193  69.6352  	-22.3093  68.5645  	-22.3293  67.2837  	-22.0993  66.2729  	-22.2893  65.0321  	-22.3993  64.0013  	-22.5493  62.9605  	-23.4693  62.2197  	-24.1893  61.4189  	-24.1593  60.6881  	-23.3693  59.2173  	-22.9193  57.9865  	-22.6393  56.7957  	-22.5193  55.9349  	-22.3993  55.0741  	-22.3093  54.3334  	-22.1493  53.4726  	-21.7893  53.1018  	-21.5593  52.5610  	-20.9293  52.3202  	-21.0593  52.2294  	-20.6093  52.1686  	-19.9093  51.8878  	-19.6193  51.7170  	-19.4193  51.6962  	-19.4893  52.0154  	-19.4893  52.1646  	-20.0493  52.6938  	-19.8393  52.7430  	-19.0893  52.8223  	-17.7993  52.1615  	-17.8693  51.5807  	-17.7693  50.7399  	-17.9693  50.3091  	-18.0093  49.3983  	-18.1093  48.7475  	-17.8293  48.1267  	-17.2493  47.9059  	-16.8593  47.6951  	-16.9293  48.1243  	-16.6793  48.2535  	-16.4093  48.8027  	-16.3493  49.3619  	-16.1593  50.3612  	-15.9893  51.2704  	-16.0193  52.4896  	-16.8193  53.0588  	-17.4293  53.1480  	-17.7893  52.8372  	-17.1993  52.4564  	-17.2493  51.9356  	-17.5993  51.8048  	-18.0093  51.8240  	-18.2893  52.1832  	-18.7193  52.4624  	-18.8893  53.1416  	-18.5793  53.6609  	-18.6293  54.0601  	-18.3793  53.4593  	-18.6293  53.2885  	-18.3393  52.7577  	-18.0293  51.9269  	-17.9893  50.9161  	-17.8393  49.9053  	-17.9993  49.2445  	
-21.0285  74.5100  	-21.1885  73.8992  	-21.3785  72.8484  	-20.9085  72.1976  	-20.1985  71.3968  	-20.1285  70.7860  	-20.5385  69.9252  	-20.4885  68.5945  	-20.3785  67.5737  	-20.1485  66.4829  	-20.3185  65.2721  	-20.6285  64.1813  	-20.8485  63.0605  	-21.7385  62.4497  	-22.3985  61.4889  	-22.3085  60.7781  	-21.3785  59.2873  	-20.8985  57.9765  	-20.6985  56.7957  	-20.6185  55.9149  	-20.6285  54.9541  	-20.7285  54.3234  	-20.5885  53.4426  	-20.0085  53.0818  	-19.5985  52.4610  	-18.8785  52.2002  	-18.9085  52.1094  	-18.5185  51.9186  	-17.8485  51.5678  	-17.7785  51.5770  	-17.7485  51.5662  	-17.7585  51.8154  	-17.6385  51.8846  	-18.0985  52.3938  	-17.6285  52.3830  	-16.8585  52.3623  	-15.6985  51.8315  	-15.9285  51.2407  	-15.9285  50.4499  	-16.1385  49.9191  	-16.0785  49.0283  	-16.0185  48.3575  	-15.7185  47.7067  	-15.1285  47.4659  	-14.7885  47.2451  	-14.9185  47.6243  	-14.7385  47.7035  	-14.4885  48.1927  	-14.4285  48.7419  	-14.2685  49.7712  	-13.8685  50.8204  	-13.9085  52.0596  	-14.6385  52.6488  	-15.2885  52.6680  	-15.7485  52.3072  	-15.2685  51.6864  	-15.2685  51.2156  	-15.7185  51.0548  	-16.0385  51.2040  	-16.2885  51.7632  	-16.7185  51.9424  	-16.8585  52.7516  	-16.5985  53.1009  	-16.7485  53.4201  	-16.4085  52.8193  	-16.6085  52.5685  	-16.2485  51.9877  	-15.9685  51.5069  	-16.0185  50.3361  	-15.8785  49.3853  	-16.0685  48.4845  	
-19.7677  74.8000  	-19.9777  74.0492  	-20.1577  73.0184  	-19.6677  72.2476  	-18.9277  71.2368  	-18.7477  70.5160  	-19.0777  69.9252  	-19.0677  68.8845  	-19.0377  67.5537  	-18.9777  66.4229  	-19.2077  65.1321  	-19.5877  64.0813  	-19.8277  62.9605  	-20.6277  62.2197  	-21.0177  61.3589  	-20.9577  60.6681  	-20.0977  59.1673  	-19.5777  57.9165  	-19.5077  56.5757  	-19.5577  55.5349  	-19.4177  54.7241  	-19.4777  54.1334  	-19.2977  53.2626  	-18.6977  52.8418  	-18.1977  52.2610  	-17.4677  52.0002  	-17.5377  51.8094  	-17.2677  51.5786  	-16.6377  51.2378  	-16.5777  51.1670  	-16.4377  51.1762  	-16.4177  51.5254  	-16.3677  51.7446  	-16.7377  52.2038  	-16.3377  52.0730  	-15.6077  51.9823  	-14.4177  51.2215  	-14.6377  50.6707  	-14.6377  50.0599  	-14.7977  49.6191  	-14.7677  48.7683  	-14.6777  48.0175  	-14.3577  47.2567  	-13.7877  46.9059  	-13.4677  46.6651  	-13.5577  47.1543  	-13.3277  47.2635  	-13.0577  47.7927  	-13.0077  48.3319  	-12.8377  49.2712  	-12.5477  50.2204  	-12.6377  51.4696  	-13.3877  52.0488  	-13.8477  52.2580  	-14.2277  51.9372  	-13.7677  51.1564  	-13.7577  50.7056  	-14.2277  50.5048  	-14.7077  50.6240  	-15.0677  51.1632  	-15.4477  51.3724  	-15.5977  51.9616  	-15.2077  52.3809  	-15.1977  52.7601  	-14.8577  52.3093  	-15.0877  52.0485  	-14.7977  51.2077  	-14.5877  50.4769  	-14.7277  49.4661  	-14.6177  48.7253  	-14.6577  47.8745  	
-17.9969  75.7600  	-18.3769  74.7592  	-18.5969  73.7184  	-18.1269  72.8476  	-17.3269  71.9168  	-17.0069  71.2260  	-17.1969  70.7552  	-17.3369  69.7145  	-17.5169  68.2937  	-17.4369  67.1629  	-17.7569  65.7921  	-17.9569  64.7513  	-18.1669  63.6705  	-18.8369  62.8797  	-19.3169  61.9389  	-19.1169  61.1781  	-18.3469  59.6173  	-17.8369  58.2865  	-17.7969  56.9457  	-17.8169  55.9749  	-17.5869  55.1041  	-17.6069  54.5734  	-17.3969  53.7626  	-16.7969  53.2418  	-16.3969  52.5310  	-15.6369  52.1402  	-15.6969  51.8794  	-15.5069  51.6586  	-14.9569  51.3278  	-14.8069  51.3170  	-14.5969  51.3462  	-14.5969  51.6954  	-14.5269  51.7946  	-14.9469  52.1738  	-14.4569  52.0030  	-13.6669  51.9223  	-12.4469  51.2715  	-12.5769  50.6507  	-12.5969  49.9799  	-12.9869  49.5291  	-13.0769  48.6683  	-13.0169  47.9375  	-12.6569  47.1967  	-12.0869  46.7959  	-11.5569  46.5951  	-11.4769  47.0043  	-11.2869  46.9935  	-11.1069  47.4927  	-11.1469  48.0419  	-11.1069  48.9312  	-10.8069  50.0404  	-10.7669  51.1896  	-11.4169  51.7588  	-11.7869  51.9380  	-12.0669  51.3972  	-11.7469  50.6264  	-11.8469  50.1056  	-12.4069  49.9648  	-12.9469  50.1640  	-13.2569  50.8932  	-13.5169  51.3624  	-13.6769  51.7016  	-13.1469  51.8809  	-13.1769  52.1401  	-12.9269  51.6293  	-13.1969  51.2485  	-12.9469  50.6077  	-12.6869  50.0869  	-12.7569  49.0361  	-12.6269  48.2953  	-12.7869  47.4045  	
-17.1561  76.1000  	-17.5061  75.3392  	-17.6861  74.1384  	-16.9861  73.3276  	-16.2461  72.3068  	-15.8361  71.6660  	-16.1061  71.0052  	-16.2961  69.9645  	-16.3861  68.5037  	-16.5561  67.4129  	-16.8861  66.1121  	-17.0761  65.1313  	-17.1861  64.0305  	-17.8161  63.1897  	-18.0861  62.1089  	-17.9261  61.1681  	-17.2861  59.5773  	-16.7561  58.3065  	-16.7861  57.0657  	-16.9161  56.1749  	-16.7561  55.2041  	-16.6461  54.6434  	-16.5861  53.7726  	-15.8461  53.1418  	-15.2661  52.4210  	-14.5561  52.0702  	-14.6161  51.7794  	-14.4561  51.4986  	-13.9461  51.2378  	-13.8661  51.1970  	-13.6661  51.2962  	-13.6961  51.6254  	-13.6161  51.7446  	-13.9561  52.1238  	-13.4261  51.9330  	-12.5461  51.8323  	-11.4761  51.1515  	-11.6261  50.4607  	-11.5561  49.7699  	-11.8961  49.2891  	-11.9561  48.4283  	-11.9461  47.8075  	-11.4961  46.9667  	-11.0061  46.5359  	-10.5561  46.2651  	-10.4461  46.6143  	-10.2661  46.6835  	-10.0261  47.1327  	-9.9661  47.6019  	-9.9561  48.5612  	-9.7061  49.5704  	-9.6661  50.7496  	-10.3861  51.1788  	-10.6961  51.2480  	-10.9461  50.8072  	-10.4461  50.0964  	-10.6861  49.5656  	-11.1761  49.5348  	-11.6861  49.7640  	-12.0861  50.3632  	-12.4061  50.7324  	-12.6561  51.0516  	-12.2761  50.9809  	-12.1961  51.3201  	-11.7761  50.8393  	-12.0061  50.6585  	-11.6761  50.1177  	-11.4761  49.4969  	-11.5961  48.2161  	-11.5361  47.0753  	-11.7361  46.1045  	
-15.3553  76.3100  	-15.8153  75.5392  	-15.9353  74.4984  	-15.2153  73.7576  	-14.4753  72.6868  	-14.1653  71.7760  	-14.3253  71.0552  	-14.4253  70.0045  	-14.5053  68.5337  	-14.6653  67.5029  	-15.0453  66.3221  	-15.2553  65.3713  	-15.3953  64.2905  	-16.0353  63.4197  	-16.2753  62.2389  	-16.0553  60.9981  	-15.5753  59.4673  	-15.0953  58.1365  	-15.1653  56.9657  	-15.3253  56.1149  	-14.9753  55.3041  	-14.8153  54.7734  	-14.8253  53.8626  	-13.9953  53.0618  	-13.4753  52.3110  	-12.7353  51.7502  	-12.6453  51.3794  	-12.5453  51.2286  	-12.1553  51.1178  	-12.0853  51.2070  	-11.8353  51.1862  	-11.9553  51.4854  	-11.8153  51.4746  	-12.0453  51.7138  	-11.4353  51.4230  	-10.6353  51.3723  	-9.6053  50.7815  	-9.7153  50.1807  	-9.7353  49.5099  	-10.0253  48.9891  	-10.1753  48.1683  	-10.1153  47.3175  	-9.6153  46.3967  	-9.1353  46.0159  	-8.6353  45.7451  	-8.4353  46.1643  	-8.2653  46.2635  	-8.1153  46.6827  	-8.1353  47.1919  	-8.1353  48.0112  	-7.8753  48.8304  	-7.8053  49.9396  	-8.3353  50.2588  	-8.7053  50.4880  	-8.8253  50.3172  	-8.4753  49.8064  	-8.7853  49.1156  	-9.3353  48.8448  	-9.9753  48.8240  	-10.3053  49.2632  	-10.5253  49.6824  	-10.5953  50.4216  	-10.3053  50.6109  	-10.1053  50.8501  	-9.8553  50.5193  	-10.1053  50.0385  	-9.7753  49.3377  	-9.6653  48.3369  	-9.5953  46.8461  	-9.4153  46.0153  	-9.7653  45.5845  	
-14.1445  76.8700  	-14.6045  76.2492  	-14.6745  75.2484  	-13.6845  74.2476  	-13.0745  73.1068  	-12.7545  72.1560  	-12.9545  71.4152  	-13.1945  70.4145  	-13.2945  68.9937  	-13.4545  68.1029  	-13.7745  66.9521  	-13.9745  65.9113  	-14.0345  64.6705  	-14.6945  63.6897  	-14.9945  62.3889  	-14.7345  61.1781  	-14.2345  59.7373  	-13.6945  58.6065  	-13.7145  57.4557  	-13.8545  56.6149  	-13.6645  55.6041  	-13.5845  54.7434  	-13.3945  53.7526  	-12.6745  52.9318  	-12.1445  52.1610  	-11.4145  51.7302  	-11.1845  51.3694  	-11.1345  51.3586  	-10.5645  51.2778  	-10.5845  51.1870  	-10.4245  51.0862  	-10.6045  51.3154  	-10.4745  51.3546  	-10.6145  51.6538  	-9.9445  51.4530  	-9.0445  51.4923  	-8.0445  50.9015  	-8.0845  50.1007  	-8.1745  49.2799  	-8.5445  48.7191  	-8.7545  47.9283  	-8.6545  47.0975  	-8.0845  46.2367  	-7.5845  45.8359  	-7.1645  45.4951  	-6.9845  45.9243  	-6.7445  46.0435  	-6.6445  46.3127  	-6.6245  46.7019  	-6.6545  47.5212  	-6.4845  48.4204  	-6.3645  49.4396  	-6.9545  49.9488  	-7.2345  50.1280  	-7.2945  50.0072  	-7.0345  49.3464  	-7.1745  48.5656  	-7.8145  48.1648  	-8.3945  48.2440  	-8.7345  48.8232  	-9.0445  49.3724  	-9.0745  50.0716  	-8.7745  50.0809  	-8.6845  50.1801  	-8.2645  49.5193  	-8.4345  49.1585  	-8.0745  48.5177  	-8.0545  47.6869  	-8.0545  46.3461  	-7.9845  45.4853  	-8.4245  44.8945  	
:END

